0.000977 -0.004387
0.002930 -0.011919
0.004883 -0.018206
0.006836 -0.024080
0.008789 -0.029539
0.010742 -0.034750
0.012695 -0.039711
0.014648 -0.044496
0.016602 -0.049101
0.018555 -0.053569
0.020508 -0.057899
0.022461 -0.062115
0.024414 -0.066219
0.026367 -0.070227
0.028320 -0.074139
0.030273 -0.077968
0.032227 -0.081714
0.034180 -0.085386
0.036133 -0.088986
0.038086 -0.092520
0.040039 -0.095988
0.041992 -0.099397
0.043945 -0.102746
0.045898 -0.106042
0.047852 -0.109283
0.049805 -0.112474
0.051758 -0.115615
0.053711 -0.118710
0.055664 -0.121758
0.057617 -0.124764
0.059570 -0.127726
0.061523 -0.130649
0.063477 -0.133531
0.065430 -0.136374
0.067383 -0.139180
0.069336 -0.141950
0.071289 -0.144684
0.073242 -0.147385
0.075195 -0.150051
0.077148 -0.152686
0.079102 -0.155288
0.081055 -0.157859
0.083008 -0.160399
0.084961 -0.162911
0.086914 -0.165393
0.088867 -0.167848
0.090820 -0.170274
0.092773 -0.172674
0.094727 -0.175047
0.096680 -0.177393
0.098633 -0.179714
0.100586 -0.182010
0.102539 -0.184282
0.104492 -0.186530
0.106445 -0.188753
0.108398 -0.190955
0.110352 -0.193133
0.112305 -0.195288
0.114258 -0.197421
0.116211 -0.199532
0.118164 -0.201622
0.120117 -0.203692
0.122070 -0.205740
0.124023 -0.207769
0.125977 -0.209777
0.127930 -0.211764
0.129883 -0.213733
0.131836 -0.215682
0.133789 -0.217613
0.135742 -0.219525
0.137695 -0.221418
0.139648 -0.223294
0.141602 -0.225151
0.143555 -0.226990
0.145508 -0.228812
0.147461 -0.230617
0.149414 -0.232404
0.151367 -0.234175
0.153320 -0.235929
0.155273 -0.237667
0.157227 -0.239388
0.159180 -0.241093
0.161133 -0.242782
0.163086 -0.244456
0.165039 -0.246114
0.166992 -0.247757
0.168945 -0.249384
0.170898 -0.250997
0.172852 -0.252594
0.174805 -0.254176
0.176758 -0.255744
0.178711 -0.257298
0.180664 -0.258837
0.182617 -0.260362
0.184570 -0.261873
0.186523 -0.263371
0.188477 -0.264854
0.190430 -0.266323
0.192383 -0.267779
0.194336 -0.269221
0.196289 -0.270650
0.198242 -0.272067
0.200195 -0.273470
0.202148 -0.274860
0.204102 -0.276238
0.206055 -0.277601
0.208008 -0.278953
0.209961 -0.280292
0.211914 -0.281619
0.213867 -0.282934
0.215820 -0.284236
0.217773 -0.285526
0.219727 -0.286804
0.221680 -0.288070
0.223633 -0.289324
0.225586 -0.290566
0.227539 -0.291796
0.229492 -0.293015
0.231445 -0.294223
0.233398 -0.295419
0.235352 -0.296604
0.237305 -0.297776
0.239258 -0.298938
0.241211 -0.300089
0.243164 -0.301228
0.245117 -0.302357
0.247070 -0.303474
0.249023 -0.304582
0.250977 -0.305678
0.252930 -0.306762
0.254883 -0.307837
0.256836 -0.308900
0.258789 -0.309954
0.260742 -0.310997
0.262695 -0.312029
0.264648 -0.313051
0.266602 -0.314063
0.268555 -0.315064
0.270508 -0.316055
0.272461 -0.317036
0.274414 -0.318007
0.276367 -0.318968
0.278320 -0.319918
0.280273 -0.320860
0.282227 -0.321791
0.284180 -0.322711
0.286133 -0.323623
0.288086 -0.324524
0.290039 -0.325416
0.291992 -0.326298
0.293945 -0.327171
0.295898 -0.328035
0.297852 -0.328888
0.299805 -0.329732
0.301758 -0.330566
0.303711 -0.331391
0.305664 -0.332207
0.307617 -0.333014
0.309570 -0.333811
0.311523 -0.334600
0.313477 -0.335379
0.315430 -0.336148
0.317383 -0.336908
0.319336 -0.337660
0.321289 -0.338402
0.323242 -0.339136
0.325195 -0.339860
0.327148 -0.340577
0.329102 -0.341283
0.331055 -0.341980
0.333008 -0.342669
0.334961 -0.343349
0.336914 -0.344020
0.338867 -0.344683
0.340820 -0.345337
0.342773 -0.345983
0.344727 -0.346619
0.346680 -0.347246
0.348633 -0.347865
0.350586 -0.348476
0.352539 -0.349078
0.354492 -0.349672
0.356445 -0.350257
0.358398 -0.350834
0.360352 -0.351402
0.362305 -0.351961
0.364258 -0.352512
0.366211 -0.353055
0.368164 -0.353590
0.370117 -0.354116
0.372070 -0.354634
0.374023 -0.355144
0.375977 -0.355645
0.377930 -0.356138
0.379883 -0.356623
0.381836 -0.357099
0.383789 -0.357568
0.385742 -0.358028
0.387695 -0.358480
0.389648 -0.358925
0.391602 -0.359361
0.393555 -0.359788
0.395508 -0.360208
0.397461 -0.360620
0.399414 -0.361023
0.401367 -0.361419
0.403320 -0.361806
0.405273 -0.362187
0.407227 -0.362558
0.409180 -0.362921
0.411133 -0.363277
0.413086 -0.363625
0.415039 -0.363965
0.416992 -0.364297
0.418945 -0.364621
0.420898 -0.364937
0.422852 -0.365246
0.424805 -0.365546
0.426758 -0.365838
0.428711 -0.366123
0.430664 -0.366400
0.432617 -0.366669
0.434570 -0.366930
0.436523 -0.367184
0.438477 -0.367430
0.440430 -0.367667
0.442383 -0.367898
0.444336 -0.368120
0.446289 -0.368335
0.448242 -0.368542
0.450195 -0.368741
0.452148 -0.368933
0.454102 -0.369117
0.456055 -0.369292
0.458008 -0.369461
0.459961 -0.369621
0.461914 -0.369774
0.463867 -0.369919
0.465820 -0.370057
0.467773 -0.370188
0.469727 -0.370310
0.471680 -0.370424
0.473633 -0.370531
0.475586 -0.370630
0.477539 -0.370722
0.479492 -0.370806
0.481445 -0.370882
0.483398 -0.370951
0.485352 -0.371012
0.487305 -0.371065
0.489258 -0.371111
0.491211 -0.371149
0.493164 -0.371180
0.495117 -0.371203
0.497070 -0.371218
0.499023 -0.371226
0.500977 -0.371226
0.502930 -0.371218
0.504883 -0.371203
0.506836 -0.371180
0.508789 -0.371149
0.510742 -0.371111
0.512695 -0.371065
0.514648 -0.371012
0.516602 -0.370951
0.518555 -0.370882
0.520508 -0.370806
0.522461 -0.370722
0.524414 -0.370630
0.526367 -0.370531
0.528320 -0.370424
0.530273 -0.370310
0.532227 -0.370188
0.534180 -0.370057
0.536133 -0.369919
0.538086 -0.369774
0.540039 -0.369621
0.541992 -0.369461
0.543945 -0.369292
0.545898 -0.369117
0.547852 -0.368933
0.549805 -0.368741
0.551758 -0.368542
0.553711 -0.368335
0.555664 -0.368120
0.557617 -0.367898
0.559570 -0.367667
0.561523 -0.367430
0.563477 -0.367184
0.565430 -0.366930
0.567383 -0.366669
0.569336 -0.366400
0.571289 -0.366123
0.573242 -0.365838
0.575195 -0.365546
0.577148 -0.365246
0.579102 -0.364937
0.581055 -0.364621
0.583008 -0.364297
0.584961 -0.363965
0.586914 -0.363625
0.588867 -0.363277
0.590820 -0.362921
0.592773 -0.362558
0.594727 -0.362187
0.596680 -0.361806
0.598633 -0.361419
0.600586 -0.361023
0.602539 -0.360620
0.604492 -0.360208
0.606445 -0.359788
0.608398 -0.359361
0.610352 -0.358925
0.612305 -0.358480
0.614258 -0.358028
0.616211 -0.357568
0.618164 -0.357099
0.620117 -0.356623
0.622070 -0.356138
0.624023 -0.355645
0.625977 -0.355144
0.627930 -0.354634
0.629883 -0.354116
0.631836 -0.353590
0.633789 -0.353055
0.635742 -0.352512
0.637695 -0.351961
0.639648 -0.351402
0.641602 -0.350834
0.643555 -0.350257
0.645508 -0.349672
0.647461 -0.349078
0.649414 -0.348476
0.651367 -0.347865
0.653320 -0.347246
0.655273 -0.346619
0.657227 -0.345983
0.659180 -0.345337
0.661133 -0.344683
0.663086 -0.344020
0.665039 -0.343349
0.666992 -0.342669
0.668945 -0.341980
0.670898 -0.341283
0.672852 -0.340577
0.674805 -0.339860
0.676758 -0.339136
0.678711 -0.338402
0.680664 -0.337660
0.682617 -0.336908
0.684570 -0.336148
0.686523 -0.335379
0.688477 -0.334600
0.690430 -0.333811
0.692383 -0.333014
0.694336 -0.332207
0.696289 -0.331391
0.698242 -0.330566
0.700195 -0.329732
0.702148 -0.328888
0.704102 -0.328035
0.706055 -0.327171
0.708008 -0.326298
0.709961 -0.325416
0.711914 -0.324524
0.713867 -0.323623
0.715820 -0.322711
0.717773 -0.321791
0.719727 -0.320860
0.721680 -0.319918
0.723633 -0.318968
0.725586 -0.318007
0.727539 -0.317036
0.729492 -0.316055
0.731445 -0.315064
0.733398 -0.314063
0.735352 -0.313051
0.737305 -0.312029
0.739258 -0.310997
0.741211 -0.309954
0.743164 -0.308900
0.745117 -0.307837
0.747070 -0.306762
0.749023 -0.305678
0.750977 -0.304582
0.752930 -0.303474
0.754883 -0.302357
0.756836 -0.301228
0.758789 -0.300089
0.760742 -0.298938
0.762695 -0.297776
0.764648 -0.296604
0.766602 -0.295419
0.768555 -0.294223
0.770508 -0.293015
0.772461 -0.291796
0.774414 -0.290566
0.776367 -0.289324
0.778320 -0.288070
0.780273 -0.286804
0.782227 -0.285526
0.784180 -0.284236
0.786133 -0.282934
0.788086 -0.281619
0.790039 -0.280292
0.791992 -0.278953
0.793945 -0.277601
0.795898 -0.276238
0.797852 -0.274860
0.799805 -0.273470
0.801758 -0.272067
0.803711 -0.270650
0.805664 -0.269221
0.807617 -0.267779
0.809570 -0.266323
0.811523 -0.264854
0.813477 -0.263371
0.815430 -0.261873
0.817383 -0.260362
0.819336 -0.258837
0.821289 -0.257298
0.823242 -0.255744
0.825195 -0.254176
0.827148 -0.252594
0.829102 -0.250997
0.831055 -0.249384
0.833008 -0.247757
0.834961 -0.246114
0.836914 -0.244456
0.838867 -0.242782
0.840820 -0.241093
0.842773 -0.239388
0.844727 -0.237667
0.846680 -0.235929
0.848633 -0.234175
0.850586 -0.232404
0.852539 -0.230617
0.854492 -0.228812
0.856445 -0.226990
0.858398 -0.225151
0.860352 -0.223294
0.862305 -0.221418
0.864258 -0.219525
0.866211 -0.217613
0.868164 -0.215682
0.870117 -0.213733
0.872070 -0.211764
0.874023 -0.209777
0.875977 -0.207769
0.877930 -0.205740
0.879883 -0.203692
0.881836 -0.201622
0.883789 -0.199532
0.885742 -0.197421
0.887695 -0.195288
0.889648 -0.193133
0.891602 -0.190955
0.893555 -0.188753
0.895508 -0.186530
0.897461 -0.184282
0.899414 -0.182010
0.901367 -0.179714
0.903320 -0.177393
0.905273 -0.175047
0.907227 -0.172674
0.909180 -0.170274
0.911133 -0.167848
0.913086 -0.165393
0.915039 -0.162911
0.916992 -0.160399
0.918945 -0.157859
0.920898 -0.155288
0.922852 -0.152686
0.924805 -0.150051
0.926758 -0.147385
0.928711 -0.144684
0.930664 -0.141950
0.932617 -0.139180
0.934570 -0.136374
0.936523 -0.133531
0.938477 -0.130649
0.940430 -0.127726
0.942383 -0.124764
0.944336 -0.121758
0.946289 -0.118710
0.948242 -0.115615
0.950195 -0.112474
0.952148 -0.109283
0.954102 -0.106042
0.956055 -0.102746
0.958008 -0.099397
0.959961 -0.095988
0.961914 -0.092520
0.963867 -0.088986
0.965820 -0.085386
0.967773 -0.081714
0.969727 -0.077968
0.971680 -0.074139
0.973633 -0.070227
0.975586 -0.066219
0.977539 -0.062115
0.979492 -0.057899
0.981445 -0.053569
0.983398 -0.049101
0.985352 -0.044496
0.987305 -0.039711
0.989258 -0.034750
0.991211 -0.029539
0.993164 -0.024080
0.995117 -0.018206
0.997070 -0.011919
0.999023 -0.004387
0.999023 0.004387
0.997070 0.011919
0.995117 0.018206
0.993164 0.024080
0.991211 0.029539
0.989258 0.034750
0.987305 0.039711
0.985352 0.044496
0.983398 0.049101
0.981445 0.053569
0.979492 0.057899
0.977539 0.062115
0.975586 0.066219
0.973633 0.070227
0.971680 0.074139
0.969727 0.077968
0.967773 0.081714
0.965820 0.085386
0.963867 0.088986
0.961914 0.092520
0.959961 0.095988
0.958008 0.099397
0.956055 0.102746
0.954102 0.106042
0.952148 0.109283
0.950195 0.112474
0.948242 0.115615
0.946289 0.118710
0.944336 0.121758
0.942383 0.124764
0.940430 0.127726
0.938477 0.130649
0.936523 0.133531
0.934570 0.136374
0.932617 0.139180
0.930664 0.141950
0.928711 0.144684
0.926758 0.147385
0.924805 0.150051
0.922852 0.152686
0.920898 0.155288
0.918945 0.157859
0.916992 0.160399
0.915039 0.162911
0.913086 0.165393
0.911133 0.167848
0.909180 0.170274
0.907227 0.172674
0.905273 0.175047
0.903320 0.177393
0.901367 0.179714
0.899414 0.182010
0.897461 0.184282
0.895508 0.186530
0.893555 0.188753
0.891602 0.190955
0.889648 0.193133
0.887695 0.195288
0.885742 0.197421
0.883789 0.199532
0.881836 0.201622
0.879883 0.203692
0.877930 0.205740
0.875977 0.207769
0.874023 0.209777
0.872070 0.211764
0.870117 0.213733
0.868164 0.215682
0.866211 0.217613
0.864258 0.219525
0.862305 0.221418
0.860352 0.223294
0.858398 0.225151
0.856445 0.226990
0.854492 0.228812
0.852539 0.230617
0.850586 0.232404
0.848633 0.234175
0.846680 0.235929
0.844727 0.237667
0.842773 0.239388
0.840820 0.241093
0.838867 0.242782
0.836914 0.244456
0.834961 0.246114
0.833008 0.247757
0.831055 0.249384
0.829102 0.250997
0.827148 0.252594
0.825195 0.254176
0.823242 0.255744
0.821289 0.257298
0.819336 0.258837
0.817383 0.260362
0.815430 0.261873
0.813477 0.263371
0.811523 0.264854
0.809570 0.266323
0.807617 0.267779
0.805664 0.269221
0.803711 0.270650
0.801758 0.272067
0.799805 0.273470
0.797852 0.274860
0.795898 0.276238
0.793945 0.277601
0.791992 0.278953
0.790039 0.280292
0.788086 0.281619
0.786133 0.282934
0.784180 0.284236
0.782227 0.285526
0.780273 0.286804
0.778320 0.288070
0.776367 0.289324
0.774414 0.290566
0.772461 0.291796
0.770508 0.293015
0.768555 0.294223
0.766602 0.295419
0.764648 0.296604
0.762695 0.297776
0.760742 0.298938
0.758789 0.300089
0.756836 0.301228
0.754883 0.302357
0.752930 0.303474
0.750977 0.304582
0.749023 0.305678
0.747070 0.306762
0.745117 0.307837
0.743164 0.308900
0.741211 0.309954
0.739258 0.310997
0.737305 0.312029
0.735352 0.313051
0.733398 0.314063
0.731445 0.315064
0.729492 0.316055
0.727539 0.317036
0.725586 0.318007
0.723633 0.318968
0.721680 0.319918
0.719727 0.320860
0.717773 0.321791
0.715820 0.322711
0.713867 0.323623
0.711914 0.324524
0.709961 0.325416
0.708008 0.326298
0.706055 0.327171
0.704102 0.328035
0.702148 0.328888
0.700195 0.329732
0.698242 0.330566
0.696289 0.331391
0.694336 0.332207
0.692383 0.333014
0.690430 0.333811
0.688477 0.334600
0.686523 0.335379
0.684570 0.336148
0.682617 0.336908
0.680664 0.337660
0.678711 0.338402
0.676758 0.339136
0.674805 0.339860
0.672852 0.340577
0.670898 0.341283
0.668945 0.341980
0.666992 0.342669
0.665039 0.343349
0.663086 0.344020
0.661133 0.344683
0.659180 0.345337
0.657227 0.345983
0.655273 0.346619
0.653320 0.347246
0.651367 0.347865
0.649414 0.348476
0.647461 0.349078
0.645508 0.349672
0.643555 0.350257
0.641602 0.350834
0.639648 0.351402
0.637695 0.351961
0.635742 0.352512
0.633789 0.353055
0.631836 0.353590
0.629883 0.354116
0.627930 0.354634
0.625977 0.355144
0.624023 0.355645
0.622070 0.356138
0.620117 0.356623
0.618164 0.357099
0.616211 0.357568
0.614258 0.358028
0.612305 0.358480
0.610352 0.358925
0.608398 0.359361
0.606445 0.359788
0.604492 0.360208
0.602539 0.360620
0.600586 0.361023
0.598633 0.361419
0.596680 0.361806
0.594727 0.362187
0.592773 0.362558
0.590820 0.362921
0.588867 0.363277
0.586914 0.363625
0.584961 0.363965
0.583008 0.364297
0.581055 0.364621
0.579102 0.364937
0.577148 0.365246
0.575195 0.365546
0.573242 0.365838
0.571289 0.366123
0.569336 0.366400
0.567383 0.366669
0.565430 0.366930
0.563477 0.367184
0.561523 0.367430
0.559570 0.367667
0.557617 0.367898
0.555664 0.368120
0.553711 0.368335
0.551758 0.368542
0.549805 0.368741
0.547852 0.368933
0.545898 0.369117
0.543945 0.369292
0.541992 0.369461
0.540039 0.369621
0.538086 0.369774
0.536133 0.369919
0.534180 0.370057
0.532227 0.370188
0.530273 0.370310
0.528320 0.370424
0.526367 0.370531
0.524414 0.370630
0.522461 0.370722
0.520508 0.370806
0.518555 0.370882
0.516602 0.370951
0.514648 0.371012
0.512695 0.371065
0.510742 0.371111
0.508789 0.371149
0.506836 0.371180
0.504883 0.371203
0.502930 0.371218
0.500977 0.371226
0.499023 0.371226
0.497070 0.371218
0.495117 0.371203
0.493164 0.371180
0.491211 0.371149
0.489258 0.371111
0.487305 0.371065
0.485352 0.371012
0.483398 0.370951
0.481445 0.370882
0.479492 0.370806
0.477539 0.370722
0.475586 0.370630
0.473633 0.370531
0.471680 0.370424
0.469727 0.370310
0.467773 0.370188
0.465820 0.370057
0.463867 0.369919
0.461914 0.369774
0.459961 0.369621
0.458008 0.369461
0.456055 0.369292
0.454102 0.369117
0.452148 0.368933
0.450195 0.368741
0.448242 0.368542
0.446289 0.368335
0.444336 0.368120
0.442383 0.367898
0.440430 0.367667
0.438477 0.367430
0.436523 0.367184
0.434570 0.366930
0.432617 0.366669
0.430664 0.366400
0.428711 0.366123
0.426758 0.365838
0.424805 0.365546
0.422852 0.365246
0.420898 0.364937
0.418945 0.364621
0.416992 0.364297
0.415039 0.363965
0.413086 0.363625
0.411133 0.363277
0.409180 0.362921
0.407227 0.362558
0.405273 0.362187
0.403320 0.361806
0.401367 0.361419
0.399414 0.361023
0.397461 0.360620
0.395508 0.360208
0.393555 0.359788
0.391602 0.359361
0.389648 0.358925
0.387695 0.358480
0.385742 0.358028
0.383789 0.357568
0.381836 0.357099
0.379883 0.356623
0.377930 0.356138
0.375977 0.355645
0.374023 0.355144
0.372070 0.354634
0.370117 0.354116
0.368164 0.353590
0.366211 0.353055
0.364258 0.352512
0.362305 0.351961
0.360352 0.351402
0.358398 0.350834
0.356445 0.350257
0.354492 0.349672
0.352539 0.349078
0.350586 0.348476
0.348633 0.347865
0.346680 0.347246
0.344727 0.346619
0.342773 0.345983
0.340820 0.345337
0.338867 0.344683
0.336914 0.344020
0.334961 0.343349
0.333008 0.342669
0.331055 0.341980
0.329102 0.341283
0.327148 0.340577
0.325195 0.339860
0.323242 0.339136
0.321289 0.338402
0.319336 0.337660
0.317383 0.336908
0.315430 0.336148
0.313477 0.335379
0.311523 0.334600
0.309570 0.333811
0.307617 0.333014
0.305664 0.332207
0.303711 0.331391
0.301758 0.330566
0.299805 0.329732
0.297852 0.328888
0.295898 0.328035
0.293945 0.327171
0.291992 0.326298
0.290039 0.325416
0.288086 0.324524
0.286133 0.323623
0.284180 0.322711
0.282227 0.321791
0.280273 0.320860
0.278320 0.319918
0.276367 0.318968
0.274414 0.318007
0.272461 0.317036
0.270508 0.316055
0.268555 0.315064
0.266602 0.314063
0.264648 0.313051
0.262695 0.312029
0.260742 0.310997
0.258789 0.309954
0.256836 0.308900
0.254883 0.307837
0.252930 0.306762
0.250977 0.305678
0.249023 0.304582
0.247070 0.303474
0.245117 0.302357
0.243164 0.301228
0.241211 0.300089
0.239258 0.298938
0.237305 0.297776
0.235352 0.296604
0.233398 0.295419
0.231445 0.294223
0.229492 0.293015
0.227539 0.291796
0.225586 0.290566
0.223633 0.289324
0.221680 0.288070
0.219727 0.286804
0.217773 0.285526
0.215820 0.284236
0.213867 0.282934
0.211914 0.281619
0.209961 0.280292
0.208008 0.278953
0.206055 0.277601
0.204102 0.276238
0.202148 0.274860
0.200195 0.273470
0.198242 0.272067
0.196289 0.270650
0.194336 0.269221
0.192383 0.267779
0.190430 0.266323
0.188477 0.264854
0.186523 0.263371
0.184570 0.261873
0.182617 0.260362
0.180664 0.258837
0.178711 0.257298
0.176758 0.255744
0.174805 0.254176
0.172852 0.252594
0.170898 0.250997
0.168945 0.249384
0.166992 0.247757
0.165039 0.246114
0.163086 0.244456
0.161133 0.242782
0.159180 0.241093
0.157227 0.239388
0.155273 0.237667
0.153320 0.235929
0.151367 0.234175
0.149414 0.232404
0.147461 0.230617
0.145508 0.228812
0.143555 0.226990
0.141602 0.225151
0.139648 0.223294
0.137695 0.221418
0.135742 0.219525
0.133789 0.217613
0.131836 0.215682
0.129883 0.213733
0.127930 0.211764
0.125977 0.209777
0.124023 0.207769
0.122070 0.205740
0.120117 0.203692
0.118164 0.201622
0.116211 0.199532
0.114258 0.197421
0.112305 0.195288
0.110352 0.193133
0.108398 0.190955
0.106445 0.188753
0.104492 0.186530
0.102539 0.184282
0.100586 0.182010
0.098633 0.179714
0.096680 0.177393
0.094727 0.175047
0.092773 0.172674
0.090820 0.170274
0.088867 0.167848
0.086914 0.165393
0.084961 0.162911
0.083008 0.160399
0.081055 0.157859
0.079102 0.155288
0.077148 0.152686
0.075195 0.150051
0.073242 0.147385
0.071289 0.144684
0.069336 0.141950
0.067383 0.139180
0.065430 0.136374
0.063477 0.133531
0.061523 0.130649
0.059570 0.127726
0.057617 0.124764
0.055664 0.121758
0.053711 0.118710
0.051758 0.115615
0.049805 0.112474
0.047852 0.109283
0.045898 0.106042
0.043945 0.102746
0.041992 0.099397
0.040039 0.095988
0.038086 0.092520
0.036133 0.088986
0.034180 0.085386
0.032227 0.081714
0.030273 0.077968
0.028320 0.074139
0.026367 0.070227
0.024414 0.066219
0.022461 0.062115
0.020508 0.057899
0.018555 0.053569
0.016602 0.049101
0.014648 0.044496
0.012695 0.039711
0.010742 0.034750
0.008789 0.029539
0.006836 0.024080
0.004883 0.018206
0.002930 0.011919
0.000977 0.004387
