94
150
245
321
379
473
555
615
709
793
853
947
1029
1089
1182
1269
1327
1423
1511
1569
1664
1754
1812
1907
1990
2048
2142
2226
2285
2376
2461
2519
2613
2692
2748
2843
2919
2977
3070
3145
3206
3300
3382
3439
3532
3609
3666
3760
3838
3895
3989
4064
4125
4219
4299
4359
4453
4532
4593
4688
4763
4825
4921
5008
5064
5156
5242
5299
5394
5474
5533
5626
5709
5767
5862
5938
6001
6094
6165
6229
6322
6405
6461
6554
6632
6693
6788
6874
6928
7023
7103
7162
7258
7338
7397
7492
7573
7632
7724
7810
7867
7960
8043
8101
8195
8282
8337
8432
8510
8571
8664
8742
8803
8896
8975
9038
9133
9213
9273
9366
9439
9501
9595
9673
9729
9823
9902
9962
10056
10137
10196
10289
10368
10426
10519
10594
10656
10748
10844
10899
10993
11091
11150
11245
11342
11399
11492
11589
11645
11736
11821
11882
11978
12065
12122
12218
12308
12367
12458
12550
12609
12702
12788
12845
12940
13025
13082
13177
13265
13321
13416
13506
13563
13657
13746
13805
13900
13984
14042
14137
14219
14276
14371
14441
14507
14601
14674
14734
14827
14905
14963
15055
15138
15196
15290
15376
15435
15526
15621
15676
15772
15861
15917
16011
16101
16161
16255
16343
16400
16495
16590
16646
16741
16829
16888
16980
17070
17129
17223
17313
17370
17462
17552
17608
17704
17791
17846
17943
18031
18085
18181
18264
18324
18416
18503
18560
18654
18730
18790
18881
18963
19021
19110
19197
19253
19349
19426
19486
19582
19662
19719
19815
19896
19955
20048
20130
20192
20286
20371
20430
20523
20612
20672
20766
20861
20920
21012
21105
21162
21254
21344
21402
21495
21583
21639
21734
21821
21877
21973
22055
22115
22208
22295
22355
22446
22539
22597
22692
22780
22835
22930
23014
23072
23168
23245
23309
23402
23488
23546
23640
23711
23769
23861
23927
23983
24075
24147
24201
24296
24370
24427
24523
24597
24659
24753
24839
24897
24991
25077
25137
25231
25320
25376
25471
25557
25611
25707
25793
25848
25945
26024
26080
26175
26252
26315
26408
26477
26538
26633
26706
26763
26856
26935
26989
27081
27145
27203
27298
27362
27415
27511
27581
27639
27735
27810
27870
27964
28057
28115
28208
28319
28376
28471
28565
28623
28719
28808
28868
28963
29059
29117
29211
29312
29369
29464
29561
29616
29711
29799
29856
29950
30033
30092
30186
30271
30327
30421
30507
30565
30659
30741
30799
30893
30982
31037
31132
31220
31280
31374
31463
31520
31615
31697
31756
31851
31939
31994
32089
32180
32235
32330
32425
32481
32574
32670
32729
32823
32914
32971
33065
33156
33213
33309
33397
33454
33547
33635
33697
33790
33892
33948
34040
34140
34198
34292
34386
34445
34537
34629
34690
34783
34878
34937
35030
35119
35180
35275
35361
35418
35511
35599
35658
35750
35843
35901
35996
36092
36147
36241
36348
36404
36501
36597
36658
36750
36848
36907
37000
37098
37155
37250
37341
37399
37496
37585
37643
37736
37830
37891
37986
38079
38134
38229
38320
38376
38472
38564
38622
38717
38808
38868
38959
39054
39111
39205
39296
39352
39447
39539
39602
39699
39787
39847
39941
40028
40087
40181
40265
40322
40417
40508
40564
40659
40748
40811
40905
40996
41060
41153
41246
41302
41397
41485
41540
41633
41721
41779
41874
41963
42023
42116
42206
42262
42355
42441
42496
42590
42668
42725
42819
42894
42956
43052
43130
43189
43284
43361
43421
43514
43597
43655
43749
43834
43892
43985
44066
44123
44219
44301
44358
44453
44534
44595
44688
44771
44829
44923
45007
45065
45159
45245
45299
45394
45478
45537
45631
45716
45773
45868
45953
46011
46104
46196
46252
46346
46438
46495
46590
46674
46730
46825
46903
46959
47054
47125
47188
47282
47359
47418
47512
47596
47656
47749
47840
47900
47995
48086
48145
48239
48334
48395
48488
48587
48646
48740
48831
48891
48986
49077
49136
49231
49321
49378
49471
49560
49619
49713
49801
49859
49952
50039
50097
50194
50278
50333
50429
50510
50567
50661
50741
50802
50897
50980
51046
51140
51233
51291
51387
51484
51541
51635
51732
51792
51885
51979
52039
52134
52227
52284
52379
52468
52525
52621
52711
52769
52863
52954
53010
53103
53188
53246
53340
53420
53479
53572
53653
53713
53809
53893
53950
54044
54135
54193
54287
54375
54432
54527
54615
54672
54767
54857
54916
55009
55100
55159
55253
55341
55400
55493
55582
55638
55732
55819
55877
55973
56058
56117
56213
56295
56355
56451
56534
56593
56689
56772
56833
56926
57011
57070
57165
57247
57306
57401
57484
57544
57639
57724
57783
57877
57969
58027
58120
58216
58273
58369
58454
58514
58609
58700
58756
58849
58942
59000
59093
59188
59243
59337
59422
59481
59576
59665
59722
59815
59899
59958
60050
60134
60195
60287
60372
60428
60523
60607
60666
60762
60848
60905
61001
61095
61154
61249
61347
61404
61499
61600
61656
61753
61839
61900
61995
62076
62141
62234
62320
62378
62470
62554
62610
62703
62785
62841
62936
63019
63075
63172
63251
63312
63405
63493
63551
63644
63736
63795
63891
63981
64036
64130
64212
64275
64370
64450
64512
64604
64689
64747
64841
64919
64978
65072
65148
65207
65302
65376
65431
65526
65598
65654
65748
65816
65874
65968
66036
66092
66187
66255
66314
66406
66476
66536
66628
66708
66763
66857
66931
66988
67081
67161
67216
67310
67389
67447
67542
67625
67682
67777
67863
67921
68013
68096
68151
68246
68321
68378
68473
68541
68598
68693
68762
68821
68914
68985
69043
69138
69210
69272
69365
69444
69501
69593
69674
69734
69828
69904
69961
70055
70127
70185
70279
70358
70412
70508
70581
70638
70732
70805
70865
70959
71030
71090
71184
71257
71315
71409
71481
71538
71631
71705
71759
71853
71927
71982
72076
72150
72206
72302
72370
72429
72523
72597
72654
72747
72821
72878
72972
73052
73109
73201
73278
73339
73431
73513
73572
73667
73743
73803
73897
73973
74030
74124
74199
74257
74351
74431
74489
74583
74666
74722
74816
74899
74955
75049
75136
75191
75286
75373
75429
75523
75610
75668
75761
75853
75908
76002
76083
76138
76232
76306
76363
76456
76530
76587
76679
76750
76804
76899
76963
77020
77115
77182
77238
77331
77405
77462
77556
77632
77689
77780
77864
77922
78016
78106
78162
78256
78347
78405
78499
78590
78648
78742
78838
78893
78986
79082
79137
79231
79322
79380
79475
79562
79618
79712
79791
79850
79941
80024
80082
80174
80256
80313
80405
80492
80546
80640
80729
80785
80878
80965
81023
81116
81207
81265
81358
81442
81498
81588
81676
81732
81827
81910
81968
82061
82151
82210
82304
82399
82460
82554
82646
82705
82798
82886
82942
83037
83121
83180
83274
83362
83420
83510
83599
83656
83750
83836
83893
83986
84072
84128
84222
84309
84365
84458
84539
84600
84692
84776
84836
84930
85026
85081
85175
85279
85336
85430
85536
85596
85689
85789
85847
85941
86045
86099
86193
86293
86350
86445
86541
86601
86692
86787
86844
86938
87032
87087
87180
87282
87339
87433
87539
87597
87689
87793
87850
87942
88041
88103
88198
88306
88363
88457
88556
88614
88708
88803
88861
88954
89053
89108
89203
89304
89360
89454
89557
89616
89709
89811
89868
89961
90055
90110
90204
90290
90348
90442
90527
90587
90680
90781
90837
90932
91031
91089
91183
91294
91352
91447
91552
91610
91705
91808
91864
91959
92055
92113
92207
92305
92362
92455
92560
92619
92713
92814
92870
92964
93064
93121
93215
93310
93368
93463
93558
93616
93708
93805
93860
93956
94047
94104
94197
94294
94351
94445
94545
94603
94696
94796
94855
94949
95056
95113
95207
95312
95368
95461
95574
95630
95723
95829
95886
95980
96081
96139
96232
96326
96384
96477
96568
96625
96715
96808
96863
96958
97040
97097
97191
97266
97324
97420
97495
97550
97642
97719
97777
97871
97956
98013
98107
98193
98250
98346
98436
98492
98586
98683
98742
98835
98937
98995
99089
99184
99240
99334
99425
99482
99576
99663
99721
99814
99899
99955
100050
100130
100187
100279
100356
100414
100508
100587
100643
100737
100820
100876
100970
101054
101112
101205
101295
101352
101446
101538
101596
101691
101784
101841
101936
102037
102093
102186
102282
102339
102432
102525
102581
102672
102768
102822
102916
103007
103065
103160
103242
103298
103392
103479
103539
103632
103726
103782
103875
103962
104021
104116
104196
104253
104347
104428
104486
104580
104664
104726
104819
104912
104969
105061
105158
105213
105308
105397
105453
105548
105636
105694
105787
105881
105938
106031
106119
106176
106268
106362
106417
106510
106590
106647
106738
106813
106869
106962
107036
107094
107186
107254
107310
107404
107464
107520
107612
107678
107731
107824
107892
107950
108043
108116
108173
108265
108341
108397
108491
108567
108623
108718
108796
108852
108947
109024
109082
109175
109249
109307
109401
109476
109532
109625
109699
109757
109850
109929
109985
110078
110158
110214
110309
110386
110443
110536
110619
110676
110769
110850
110909
111002
111085
111142
111235
111312
111369
111464
111536
111590
111685
111760
111816
111909
111988
112045
112140
112223
112281
112373
112463
112520
112614
112707
112763
112857
112953
113010
113106
113195
113253
113347
113435
113493
113587
113677
113736
113828
113920
113975
114070
114155
114210
114305
114386
114443
114537
114617
114676
114771
114854
114911
115003
115089
115146
115237
115323
115380
115473
115561
115618
115713
115800
115857
115950
116051
116107
116199
116296
116353
116447
116536
116592
116685
116773
116830
116922
117013
117071
117163
117252
117309
117402
117490
117546
117639
117722
117781
117874
117962
118019
118113
118200
118260
118351
118440
118498
118591
118680
118734
118828
118920
118977
119072
119162
119220
119313
119410
119468
119561
119650
119708
119802
119891
119949
120044
120131
120189
120285
120378
120436
120529
120622
120679
120771
120865
120921
121016
121110
121168
121263
121349
121407
121501
121585
121645
121738
121834
121891
121984
122079
122135
122229
122324
122381
122476
122573
122631
122723
122829
122887
122981
123084
123141
123235
123337
123396
123490
123591
123649
123741
123839
123897
123990
124085
124141
124236
124329
124385
124479
124575
124633
124726
124829
124886
124978
125076
125132
125226
125313
125370
125464
125556
125613
125706
125801
125858
125952
126050
126105
126200
126286
126346
126441
126530
126587
126683
126773
126831
126923
127014
127073
127166
127254
127311
127406
127488
127546
127641
127731
127789
127883
127978
128035
128129
128242
128297
128391
128498
128554
128650
128751
128807
128900
129007
129063
129156
129256
129313
129407
129504
129561
129656
129745
129803
129897
129984
130043
130137
130222
130278
130374
130462
130518
130612
130701
130759
130852
130943
131000
131094
131193
131251
131345
131447
131504
131598
131694
131750
131845
131947
132004
132097
132200
132258
132352
132452
132510
132604
132708
132765
132859
132958
133015
133109
133209
133266
133360
133468
133526
133621
133720
133778
133871
133969
134028
134120
134222
134278
134373
134475
134531
134627
134726
134784
134878
134981
135037
135131
135240
135297
135393
135504
135562
135655
135768
135824
135919
136021
136077
136172
136276
136333
136427
136524
136582
136676
136777
136834
136928
137040
137096
137191
137302
137359
137453
137559
137616
137710
137819
137874
137969
138077
138135
138228
138335
138391
138483
138582
138637
138733
138818
138874
138970
139054
139113
139208
139295
139355
139448
139539
139595
139689
139777
139837
139930
140038
140094
140188
140303
140360
140454
140564
140620
140715
140814
140871
140966
141066
141125
141218
141325
141381
141474
141587
141644
141738
141848
141906
142000
142113
142169
142263
142373
142428
142522
142630
142688
142783
142885
142943
143036
143142
143197
143292
143398
143454
143548
143655
143713
143806
143913
143970
144064
144169
144224
144319
144417
144474
144569
144676
144732
144825
144938
144994
145088
145195
145251
145346
145448
145506
145600
145709
145764
145858
145974
146031
146127
146231
146287
146382
146468
146526
146619
146710
146765
146859
146950
147005
147099
147196
147252
147346
147437
147497
147591
147686
147743
147837
147947
148003
148099
148210
148267
148361
148473
148527
148621
148736
148791
148887
148996
149051
149146
149254
149308
149403
149498
149553
149647
149731
149785
149880
149962
150018
150114
150193
150251
150345
150435
150493
150587
150679
150734
150827
150927
150983
151078
151189
151247
151343
151449
151505
151599
151702
151758
151852
151952
152007
152102
152206
152263
152356
152460
152514
152607
152710
152765
152860
152959
153015
153110
153206
153263
153357
153454
153510
153603
153691
153747
153841
153948
154005
154100
154231
154289
154383
154517
154575
154670
154792
154850
154943
155053
155109
155203
155309
155364
155459
155563
155619
155715
155818
155874
155969
156057
156114
156207
156294
156351
156447
156540
156594
156689
156787
156840
156931
157038
157095
157188
157302
157358
157453
157580
157639
157734
157857
157914
158009
158129
158185
158280
158399
158456
158550
158663
158719
158812
158916
158970
159064
159166
159223
159318
159418
159474
159568
159671
159726
159821
159915
159970
160064
160146
160203
160298
160379
160437
160531
160623
160681
160776
160878
160934
161030
161129
161185
161280
161385
161445
161539
161657
161713
161809
161925
161981
162076
162178
162235
162329
162418
162475
162569
162663
162719
162815
162907
162963
163057
163148
163206
163299
163390
163448
163542
163647
163702
163795
163905
163962
164057
164172
164230
164324
164430
164486
164580
164679
164735
164830
164934
164991
165086
165202
165258
165352
165464
165519
165615
165719
165776
165872
165978
166038
166132
166246
166301
166397
166504
166560
166655
166754
166811
166906
167003
167060
167154
167272
167327
167423
167538
167596
167690
167805
167860
167954
168054
168109
168204
168315
168371
168466
168577
168633
168727
168837
168893
168989
169090
169147
169243
169331
169388
169481
169562
169618
169711
169802
169857
169951
170059
170115
170210
170314
170373
170466
170562
170620
170714
170824
170882
170978
171111
171168
171262
171392
171449
171543
171656
171712
171807
171912
171968
172062
172171
172227
172322
172426
172484
172579
172677
172734
172828
172917
172975
173069
173162
173219
173313
173415
173472
173567
173671
173728
173823
173925
173983
174077
174162
174220
174315
174397
174453
174548
174642
174698
174793
174892
174951
175045
175140
175197
175290
175376
175433
175528
175619
175676
175771
175859
175915
176012
176094
176153
176246
176328
176386
176479
176560
176618
176711
176788
176844
176939
177011
177067
177163
177234
177290
177386
177456
177511
177605
177674
177731
177826
177896
177954
178048
178124
178180
178274
178353
178408
178502
178582
178639
178733
178811
178867
178962
179044
179101
179196
179285
179342
179434
179520
179578
179671
179750
179807
179900
179973
180029
180123
180196
180255
180349
180421
180478
180572
180644
180701
180795
180869
180925
181018
181095
181151
181245
181318
181376
181470
181545
181602
181696
181769
181824
181919
181985
182039
182133
182193
182249
182343
182406
182460
182555
182618
182675
182770
182837
182896
182990
183064
183124
183217
183305
183362
183456
183547
183602
183695
183785
183840
183934
184020
184077
184172
184254
184315
184407
184498
184552
184645
184730
184786
184879
184970
185024
185119
185211
185266
185361
185446
185504
185597
185686
185740
185833
185922
185979
186072
186161
186216
186312
186393
186448
186542
186621
186677
186770
186846
186902
186994
187070
187127
187220
187298
187355
187448
187537
187591
187686
187781
187838
187933
188037
188093
188186
188285
188341
188434
188532
188588
188683
188781
188836
188931
189023
189082
189175
189264
189320
189413
189508
189565
189659
189755
189812
189908
190007
190065
190159
190255
190314
190407
190512
190567
190660
190768
190824
190920
191024
191082
191175
191272
191330
191422
191527
191583
191677
191784
191841
191936
192045
192103
192196
192300
192357
192451
192552
192608
192703
192803
192859
192953
193054
193110
193204
193301
193356
193450
193547
193604
193699
193797
193854
193947
194049
194107
194201
194291
194348
194441
194531
194586
194682
194777
194836
194930
195042
195099
195193
195304
195360
195454
195569
195625
195720
195835
195891
195985
196099
196155
196251
196357
196413
196508
196600
196659
196752
196846
196902
196995
197091
197145
197241
197335
197392
197487
197586
197643
197737
197840
197895
197989
198092
198147
198242
198354
198409
198504
198621
198678
198772
198882
198938
199034
199141
199198
199294
199402
199458
199553
199659
199715
199809
199906
199961
200057
200150
200206
200301
200391
200449
200543
200627
200683
200778
200860
200917
201012
201098
201154
201249
201340
201395
201490
201581
201638
201733
201831
201888
201981
202098
202153
202249
202360
202417
202511
202617
202674
202768
202877
202932
203027
203134
203189
203285
203379
203437
203532
203624
203680
203774
203873
203928
204022
204117
204174
204270
204362
204421
204515
204610
204667
204760
204860
204915
205010
205103
205159
205255
205347
205406
205500
205592
205647
205740
205822
205877
205971
206050
206107
206202
206282
206337
206432
206513
206570
206664
206742
206800
206894
206974
207031
207125
207208
207266
207359
207442
207496
207590
207665
207719
207814
207883
207942
208035
208109
208164
208258
208331
208389
208482
208562
208618
208711
208802
208857
208950
209044
209098
209191
209281
209337
209431
209522
209579
209673
209766
209823
209916
210011
210066
210160
210247
210303
210398
210488
210545
210640
210734
210790
210883
210980
211036
211128
211225
211279
211374
211472
211528
211623
211732
211787
211880
211988
212043
212136
212238
212293
212388
212486
212542
212635
212739
212795
212888
212992
213047
213141
213245
213300
213395
213494
213548
213642
213745
213799
213892
213999
214053
214147
214254
214310
214405
214513
214568
214662
214762
214818
214911
215015
215068
215162
215263
215319
215413
215506
215563
215657
215751
215806
215898
216003
216057
216151
216266
216320
216416
216525
216582
216676
216777
216836
216928
217035
217090
217185
217296
217352
217444
217549
217606
217700
217801
217855
217949
218047
218103
218198
218303
218360
218453
218559
218615
218708
218810
218862
218957
219045
219101
219196
219286
219343
219436
219528
219585
219678
219773
219827
219922
220018
220075
220169
220283
220340
220433
220565
220620
220715
220838
220894
220989
221113
221168
221262
221382
221438
221532
221649
221705
221800
221910
221966
222060
222171
222225
222321
222439
222496
222590
222703
222758
222852
222962
223016
223111
223219
223275
223370
223485
223543
223637
223764
223818
223913
224038
224093
224187
224317
224373
224468
224595
224650
224745
224871
224928
225022
225134
225188
225282
225389
225444
225539
225652
225709
225803
225919
225979
226071
226182
226236
226331
226436
226493
226588
226701
226757
226851
226968
227022
227119
227242
227300
227393
227533
227590
227686
227824
227882
227976
228103
228161
228255
228380
228437
228533
228652
228710
228804
228918
228974
229071
229173
229228
229324
229416
229475
229567
229670
229725
229819
229926
229980
230075
230191
230246
230342
230453
230510
230603
230733
230788
230884
231002
231058
231153
231265
231321
231414
231524
231578
231674
231785
231841
231936
232037
232093
232188
232284
232340
232433
232536
232590
232687
232785
232840
232936
233034
233091
233184
233277
233334
233428
233524
233579
233675
233769
233826
233920
234006
234063
234157
234244
234301
234395
234482
234537
234631
234719
234775
234870
234954
235011
235105
235197
235253
235347
235443
235500
235593
235700
235755
235849
235960
236016
236112
236232
236287
236380
236507
236562
236657
236777
236833
236927
237038
237094
237187
237293
237346
237441
237539
237593
237687
237785
237841
237934
238043
238097
238190
238311
238364
238458
238579
238635
238728
238853
238908
239001
239128
239184
239279
239403
239460
239553
239673
239727
239821
239935
239990
240084
240200
240256
240348
240457
240514
240608
240713
240768
240864
240967
241024
241118
241227
241282
241376
241491
241545
241641
241748
241803
241898
241998
242054
242148
242256
242311
242406
242511
242567
242664
242766
242823
242917
243025
243080
243175
243283
243338
243433
243541
243598
243695
243794
243848
243943
244040
244096
244191
244294
244351
244447
244559
244616
244710
244815
244874
244968
245081
245135
245231
245344
245400
245493
245597
245651
245744
245846
245901
245997
246109
246164
246260
246386
246442
246537
246648
246702
246798
246903
246958
247053
247166
247216
247309
247405
247461
247554
247637
247692
247786
247864
247918
248013
248084
248139
248233
248301
248355
248450
248522
248578
248670
248749
248805
248898
248980
249035
249130
249225
249280
249376
249474
249530
249624
249714
249771
249864
249952
250008
250102
250186
250245
250338
250428
250481
250575
250659
250713
250807
250891
250946
251040
251127
251185
251278
251369
251424
251517
251604
251658
251752
251841
251896
251990
252084
252138
252233
252322
252377
252469
252564
252618
252710
252814
252867
252962
253063
253118
253212
253314
253370
253463
253567
253621
253714
253820
253874
253968
254070
254126
254221
254316
254372
254465
254570
254625
254718
254826
254879
254973
255078
255134
255227
255327
255382
255475
255575
255630
255724
255825
255879
255975
256074
256128
256221
256312
256368
256460
256549
256604
256697
256786
256839
256933
257020
257075
257169
257261
257317
257412
257504
257563
257654
257763
257818
257911
258015
258069
258162
258272
258327
258420
258527
258583
258677
258779
258832
258927
259024
259077
259170
259267
259323
259416
259511
259567
259659
259758
259811
259904
260000
260053
260146
260239
260292
260386
260474
260530
260622
260707
260763
260854
260939
260995
261086
261175
261228
261319
261408
261462
261556
261642
261700
261791
261883
261939
262030
262130
262185
262275
262374
262428
262521
262621
262675
262768
262869
262924
263015
263113
263171
263261
263359
263413
263507
263600
263655
263749
263840
263895
263990
264078
264136
264224
264322
264375
264468
264564
264618
264713
264810
264862
264959
265051
265107
265198
265292
265348
265439
265533
265588
265677
265770
265825
265920
266017
266071
266164
266263
266317
266410
266506
266561
266649
266747
266801
266893
267000
267053
267145
267249
267304
267394
267500
267555
267647
267754
267808
267901
268005
268059
268152
268256
268313
268404
268505
268559
268651
268759
268813
268905
269012
269068
269161
269266
269322
269413
269517
269571
269663
269767
269820
269912
270011
270066
270157
270249
270304
270395
270487
270541
270631
270730
270783
270877
270986
271040
271132
271242
271298
271388
271497
271551
271705
271760
271815
271907
272028
272087
272178
272297
272355
272446
272580
272634
272726
272855
272912
273003
273117
273172
273266
273365
273420
273512
273617
273672
273762
273874
273929
274021
274149
274204
274297
274418
274474
274565
274686
274741
274832
274957
275012
275105
275225
275281
275373
275490
275544
275637
275757
275812
275906
276024
276080
276171
276285
276339
276433
276538
276592
276686
276796
276850
276943
277054
277109
277201
277308
277365
277457
277560
277614
277707
277806
277862
277954
278057
278112
278202
278310
278363
278457
278557
278612
278703
278812
278868
278962
279075
279131
279223
279337
279393
279485
279594
279649
279740
279849
279904
279994
280108
280162
280254
280359
280414
280506
280606
280661
280750
280855
280909
281000
281120
281174
281266
281391
281448
281540
281653
281706
281797
281919
281974
282066
282180
282236
282326
282425
282479
282569
282666
282719
282811
282906
282960
283052
283146
283201
283293
283383
283440
283532
283619
283675
283764
283861
283913
284006
284091
284146
284238
284321
284375
284469
284551
284606
284697
284776
284830
284920
285002
285054
285145
285222
285275
285366
285441
285493
285583
285655
285707
285798
285872
285925
286017
286092
286148
286239
286324
286379
286470
286554
286611
286701
286791
286846
286936
287027
287082
287174
287265
287319
287413
287495
287553
287647
287735
287789
287879
287965
288022
288112
288198
288254
288347
288436
288488
288582
288674
288728
288820
288911
288965
289055
289149
289205
289294
289396
289449
289539
289636
289691
289785
289875
289930
290020
290115
290170
290261
290365
290420
290510
290612
290667
290757
290857
290910
291003
291099
291152
291246
291335
291389
291480
291566
291623
291713
291798
291850
291940
292025
292077
292170
292246
292297
292389
292461
292512
292603
292676
292730
292820
292905
292960
293047
293145
293197
293288
293400
293453
293543
293662
293717
293808
293921
293976
294066
294171
294227
294318
294424
294478
294571
294667
294723
294818
294907
294962
295052
295148
295201
295291
295384
295438
295528
295629
295683
295777
295881
295936
296027
296134
296188
296278
296379
296434
296525
296625
296679
296771
296872
296929
297020
297127
297181
297272
297373
297428
297518
297623
297676
297769
297873
297930
298022
298130
298185
298277
298382
298434
298526
298629
298682
298774
298875
298933
299024
299125
299181
299271
299372
299427
299519
299615
299670
299761
299853
299911
300003
300099
300154
300244
300340
300396
300487
300587
300640
300733
300836
300891
300984
301085
301143
301233
301336
301390
301480
301585
301639
301730
301833
301888
301981
302078
302133
302224
302322
302376
302466
302568
302621
302714
302814
302871
302963
303065
303121
303212
303315
303371
303462
303567
303622
303713
303813
303871
303964
304062
304118
304208
304313
304368
304459
304564
304619
304710
304816
304872
304962
305073
305128
305216
305332
305386
305476
305595
305649
305739
305857
305912
306002
306119
306172
306263
306378
306431
306524
306633
306689
306778
306887
306941
307031
307139
307191
307284
307390
307444
307536
307642
307697
307787
307897
307953
308043
308150
308204
308297
308396
308451
308543
308639
308694
308786
308885
308940
309032
309129
309182
309274
309370
309425
309518
309609
309662
309756
309845
309903
309994
310093
310148
310238
310337
310391
310483
310584
310639
310732
310836
310892
310984
311088
311144
311235
311340
311394
311487
311595
311651
311743
311854
311908
311999
312107
312160
312251
312360
312414
312507
312609
312664
312754
312856
312912
313004
313100
313153
313248
313344
313398
313491
313588
313643
313735
313830
313886
313978
314081
314135
314227
314333
314387
314480
314575
314630
314724
314819
314875
314966
315064
315119
315210
315307
315361
315454
315547
315602
315695
315789
315845
315936
316034
316090
316181
316282
316336
316427
316528
316585
316678
316777
316833
316924
317026
317081
317171
317270
317325
317416
317515
317569
317661
317759
317814
317905
318005
318060
318151
318248
318303
318393
318485
318539
318631
318723
318779
318872
318966
319022
319116
319206
319262
319353
319443
319500
319590
319688
319743
319836
319942
319995
320089
320191
320247
320338
320448
320503
320593
320702
320756
320848
320958
321015
321106
321219
321275
321366
321479
321535
321626
321734
321790
321882
321986
322042
322133
322243
322297
322388
322498
322551
322643
322750
322806
322897
323004
323060
323151
323261
323313
323404
323519
323572
323666
323774
323830
323922
324031
324086
324177
324284
324338
324431
324540
324597
324688
324802
324856
324948
325060
325115
325207
325314
325368
325462
325572
325629
325719
325832
325887
325977
326087
326142
326236
326341
326398
326490
326586
326642
326733
326833
326887
326978
327075
327131
327224
327336
327392
327484
327610
327666
327757
327879
327936
328028
328146
328202
328294
328400
328456
328546
328652
328707
328800
328895
328951
329044
329134
329191
329281
329378
329433
329526
329625
329680
329773
329873
329928
330023
330129
330183
330274
330382
330436
330528
330635
330688
330781
330885
330940
331033
331135
331191
331284
331381
331435
331527
331624
331677
331771
331864
331920
332014
332109
332166
332257
332351
332405
332496
332591
332646
332740
332836
332889
332980
333082
333137
333229
333330
333387
333479
333581
333636
333727
333833
333883
333978
334080
334137
334229
334330
334386
334477
334572
334627
334717
334814
334866
334961
335047
335103
335198
335291
335347
335437
335534
335589
335680
335771
335827
335919
336017
336071
336163
336264
336318
336411
336506
336561
336653
336742
336800
336893
336984
337039
337133
337229
337284
337376
337470
337526
337619
337711
337766
337858
337950
338004
338096
338187
338240
338333
338422
338478
338572
338661
338716
338807
338900
338954
339045
339136
339192
339284
339379
339432
339526
339628
339682
339775
339882
339938
340029
340133
340188
340280
340377
340431
340524
340619
340675
340768
340868
340924
341016
341113
341169
341260
341360
341414
341507
341603
341658
341750
341855
341911
342002
342106
342162
342254
342355
342409
342502
342602
342658
342751
342848
342903
342996
343095
343150
343240
343359
343412
343506
343621
343675
343769
343873
343930
344022
344121
344177
344270
344369
344421
344514
344608
344663
344757
344848
344904
344994
345085
345138
345230
345335
345389
345481
345601
345657
345751
345868
345923
346016
346125
346179
346271
346372
346427
346522
346612
346670
346763
346858
346913
347005
347112
347167
347259
347368
347422
347516
347624
347681
347773
347877
347932
348024
348124
348177
348271
348368
348422
348516
348618
348675
348767
348870
348925
349016
349119
349173
349266
349363
349417
349511
349602
349660
349753
349842
349898
349991
350086
350143
350236
350334
350389
350483
350572
350628
350722
350806
350862
350956
351036
351092
351184
351268
351323
351414
351500
351556
351649
351735
351791
351885
351971
352027
352122
352205
352262
352354
352436
352494
352586
352666
352719
352810
352886
352940
353031
353113
353168
353261
353356
353412
353506
353603
353661
353753
353853
353908
353999
354099
354153
354247
354338
354393
354486
354577
354632
354725
354812
354867
354959
355049
355105
355197
355297
355352
355445
355554
355610
355704
355805
355862
355953
356051
356107
356198
356293
356347
356440
356530
356585
356679
356767
356823
356917
357004
357059
357151
357239
357293
357386
357476
357532
357625
357715
357771
357863
357960
358015
358108
358211
358268
358360
358471
358526
358620
358725
358780
358873
358974
359030
359123
359220
359276
359368
359461
359517
359608
359698
359751
359845
359932
359987
360081
360173
360229
360322
360415
360472
360565
360663
360717
360811
360911
360965
361059
361151
361205
361297
361390
361447
361538
361634
361689
361779
361881
361935
362028
362123
362177
362269
362356
362412
362505
362587
362642
362733
362817
362873
362965
363048
363101
363192
363283
363338
363431
363525
363579
363673
363758
363815
363906
363997
364053
364146
364237
364292
364384
364482
364537
364631
364732
364789
364883
364987
365043
365134
365237
365292
365384
365491
365545
365638
365742
365799
365890
365990
366047
366140
366233
366286
366380
366469
366522
366615
366700
366753
366846
366930
366985
367076
367166
367223
367315
367403
367461
367552
367645
367700
367793
367886
367942
368035
368130
368186
368277
368367
368422
368514
368606
368660
368752
368837
368891
368983
369067
369124
369216
369300
369356
369450
369532
369590
369681
369764
369820
369911
369995
370053
370144
370230
370285
370378
370466
370520
370613
370697
370752
370845
370927
370985
371076
371161
371218
371310
371395
371448
371540
371624
371679
371770
371851
371906
371998
372075
372134
372227
372312
372368
372459
372547
372604
372697
372785
372841
372932
373020
373074
373167
373256
373310
373404
373493
373549
373642
373730
373786
373878
373971
374026
374117
374213
374269
374363
374457
374513
374606
374702
374759
374851
374950
375004
375097
375191
375244
375337
375436
375492
375586
375685
375741
375832
375925
375981
376072
376162
376216
376308
376395
376450
376544
376629
376684
376778
376860
376917
377010
377095
377151
377242
377334
377389
377479
377581
377634
377726
377830
377887
377980
378088
378145
378236
378344
378398
378491
378592
378647
378741
378840
378896
378990
379086
379142
379234
379332
379387
379480
379580
379635
379729
379826
379882
379976
380071
380127
380219
380314
380370
380462
380560
380615
380708
380811
380866
380960
381055
381112
381204
381302
381356
381447
381543
381598
381691
381800
381853
381947
382053
382110
382201
382307
382363
382455
382557
382614
382707
382811
382866
382958
383059
383117
383209
383309
383365
383457
383553
383608
383703
383796
383853
383946
384043
384100
384191
384298
384353
384446
384552
384607
384700
384804
384860
384952
385052
385108
385201
385303
385357
385449
385550
385604
385696
385795
385851
385946
386042
386100
386191
386293
386349
386441
386545
386598
386692
386792
386848
386941
387033
387089
387180
387269
387325
387418
387506
387562
387653
387743
387797
387890
387974
388030
388124
388208
388263
388354
388446
388502
388593
388683
388739
388831
388914
388969
389060
389145
389200
389294
389374
389430
389524
389606
389661
389754
389842
389899
389992
390081
390137
390228
390324
390379
390474
390561
390617
390711
390795
390851
390943
391024
391081
391172
391255
391310
391402
391483
391538
391631
391712
391768
391861
391938
391993
392086
392165
392222
392313
392398
392454
392547
392636
392692
392784
392878
392935
393028
393119
393175
393267
393355
393410
393504
393589
393646
393738
393822
393879
393972
394054
394110
394201
394283
394337
394429
394509
394563
394657
394735
394789
394881
394956
395013
395106
395178
395234
395326
395392
395447
395537
395609
395663
395755
395835
395891
395982
396069
396124
396215
396302
396357
396449
396542
396598
396691
396790
396846
396937
397037
397093
397184
397277
397331
397422
397511
397565
397658
397751
397806
397900
397987
398044
398135
398228
398283
398374
398466
398521
398613
398696
398750
398844
398930
398985
399078
399165
399223
399316
399405
399462
399555
399650
399706
399798
399895
399951
400044
400149
400206
400298
400403
400459
400550
400655
400708
400800
400895
400950
401043
401142
401198
401290
401388
401444
401535
401630
401687
401781
401874
401928
402022
402108
402164
402257
402349
402405
402497
402590
402647
402739
402832
402888
402981
403073
403128
403221
403315
403372
403464
403562
403620
403712
403813
403868
403960
404059
404114
404207
404305
404360
404454
404555
404613
404705
404811
404866
404957
405062
405117
405211
405313
405369
405462
405572
405628
405719
405838
405893
405986
406096
406152
406246
406346
406402
406494
406588
406645
406737
406831
406884
406977
407069
407124
407217
407307
407362
407456
407547
407604
407693
407791
407848
407937
408043
408098
408192
408290
408346
408440
408538
408594
408686
408787
408844
408936
409042
409096
409190
409290
409346
409439
409539
409595
409687
409787
409844
409936
410035
410089
410181
410275
410331
410424
410524
410581
410675
410780
410834
410926
411036
411091
411185
411289
411345
411439
411543
411600
411691
411796
411852
411942
412048
412103
412197
412298
412355
412447
412555
412611
412704
412807
412861
412955
413059
413114
413207
413311
413366
413457
413563
413619
413711
413816
413870
413964
414066
414122
414215
414319
414376
414468
414571
414627
414719
414815
414870
414963
415059
415115
415207
415306
415363
415455
415557
415613
415704
415812
415868
415960
416078
416135
416228
416345
416400
416492
416603
416657
416751
416858
416914
417008
417116
417173
417265
417368
417422
417515
417613
417668
417761
417853
417910
418005
418089
418146
418235
418324
418380
418471
418552
418611
418702
418792
418847
418942
419041
419096
419190
419289
419346
419439
419538
419596
419689
419791
419845
419939
420040
420094
420187
420289
420345
420437
420541
420597
420689
420791
420847
420942
421044
421099
421192
421293
421350
421444
421547
421602
421693
421794
421849
421942
422029
422085
422179
422265
422321
422413
422507
422561
422652
422751
422806
422900
422996
423053
423146
423263
423319
423411
423527
423582
423675
423785
423841
423935
424045
424100
424192
424297
424353
424447
424543
424597
424691
424782
424836
424930
425020
425079
425172
425258
425315
425408
425491
425547
425639
425727
425782
425873
425965
426018
426111
426194
426252
426344
426428
426484
426578
426661
426718
426811
426897
426952
427045
427129
427182
427275
427354
427409
427501
427587
427644
427736
427828
427884
427975
428068
428124
428216
428302
428360
428452
428536
428590
428685
428768
428824
428916
429008
429064
429157
429243
429301
429392
429478
429535
429627
429712
429767
429861
429944
429998
430092
430175
430230
430323
430405
430459
430552
430632
430688
430779
430863
430918
431009
431094
431149
431242
431326
431381
431475
431557
431613
431706
431792
431847
431940
432027
432083
432175
432262
432317
432409
432494
432550
432643
432728
432782
432875
432963
433019
433112
433200
433256
433348
433434
433491
433582
433672
433726
433819
433905
433962
434054
434138
434195
434288
434377
434433
434526
434616
434672
434763
434858
434914
435006
435097
435152
435245
435331
435386
435480
435565
435621
435714
435803
435859
435951
436044
436099
436191
436282
436337
436429
436525
436579
436672
436769
436825
436918
437009
437065
437158
437251
437306
437398
437496
437550
437644
437741
437796
437889
437985
438041
438133
438232
438287
438378
438476
438531
438624
438729
438783
438875
438972
439028
439119
439220
439275
439367
439465
439520
439613
439702
439757
439851
439936
439993
440086
440174
440230
440323
440417
440466
440558
440645
440700
440792
440884
440938
441031
441122
441178
441270
441365
441422
441514
441606
441662
441753
441845
441899
441991
442087
442143
442236
442335
442391
442483
442580
442637
442728
442826
442882
442976
443075
443128
443221
443321
443375
443468
443566
443623
443714
443823
443879
443971
444076
444130
444224
444329
444385
444478
444586
444641
444733
444832
444888
444980
445072
445127
445221
445309
445365
445458
445558
445613
445705
445812
445867
445958
446056
446112
446205
446301
446356
446450
446547
446604
446696
446805
446859
446951
447062
447115
447208
447311
447367
447459
447561
447617
447709
447810
447865
447957
448057
448110
448203
448308
448364
448457
448561
448616
448708
448821
448875
448970
449074
449129
449222
449326
449382
449474
449584
449640
449732
449832
449888
449981
450075
450130
450223
450313
450370
450461
450558
450614
450705
450807
450862
450956
451060
451116
451210
451312
451368
451461
451561
451615
451707
451814
451869
451963
452071
452128
452221
452337
452393
452485
452592
452648
452740
452841
452894
452988
453085
453141
453234
453337
453393
453486
453587
453642
453735
453834
453889
453982
454078
454134
454227
454325
454381
454473
454574
454630
454722
454819
454873
454968
455062
455117
455209
455315
455371
455462
455572
455626
455718
455828
455883
455976
456083
456138
456231
456340
456395
456487
456599
456654
456748
456853
456908
457001
457103
457159
457252
457356
457411
457501
457604
457660
457754
457855
457910
458004
458103
458160
458251
458358
458412
458505
458610
458664
458757
458856
458912
459006
459100
459157
459249
459347
459404
459494
459596
459651
459742
459849
459905
459997
460102
460159
460250
460354
460408
460501
460607
460662
460755
460861
460916
461007
461112
461166
461258
461361
461414
461507
461607
461663
461757
461861
461915
462007
462106
462163
462254
462358
462413
462508
462608
462663
462756
462857
462914
463006
463104
463160
463252
463353
463409
463502
463610
463664
463758
463863
463920
464011
464117
464171
464264
464359
464417
464508
464615
464669
464759
464859
464919
465010
465114
465169
465261
465363
465416
465510
465621
465675
465768
465869
465928
466021
466129
466185
466276
466376
466432
466526
466622
466678
466771
466869
466923
467015
467115
467168
467261
467359
467413
467507
467605
467659
467753
467858
467915
468007
468117
468174
468269
468379
468434
468528
468630
468687
468780
468876
468933
469025
469126
469180
469273
469369
469424
469519
469616
469673
469765
469868
469926
470018
470126
470181
470275
470385
470441
470533
470642
470698
470790
470897
470953
471046
471155
471211
471305
471411
471468
471561
471663
471719
471812
471910
471964
472057
472158
472212
472307
472408
472463
472556
472662
472715
472808
472915
472968
473063
473162
473218
473312
473410
473467
473560
473657
473713
473806
473906
473961
474056
474150
474207
474300
474398
474453
474546
474644
474700
474792
474899
474954
475048
475156
475213
475308
475413
475467
475559
475667
475722
475814
475924
475978
476073
476183
476239
476331
476440
476496
476587
476692
476746
476840
476931
476987
477081
477170
477226
477319
477409
477466
477558
477649
477704
477795
477884
477939
478033
478118
478173
478267
478356
478412
478505
478601
478658
478750
478844
478899
478991
479085
479139
479233
479321
479377
479471
479555
479611
479704
479786
479843
479935
480017
480073
480164
480251
480306
480398
480493
480547
480640
480746
480802
480894
481003
481058
481150
481252
481307
481399
481499
481554
481648
481743
481798
481891
481981
482036
482128
482215
482269
482361
482450
482504
482597
482691
482745
482839
482936
482991
483082
483183
483240
483332
483434
483489
483581
483675
483730
483824
483911
483966
484060
484144
484201
484294
484377
484434
484526
484609
484664
484756
484841
484896
484988
485071
485126
485219
485297
485352
485446
485529
485585
485677
485761
485818
485909
485995
486053
486144
486232
486286
486379
486464
486519
486612
486701
486756
486849
486940
486997
487089
487174
487231
487323
487410
487465
487558
487645
487700
487794
487882
487937
488030
488120
488177
488269
488353
488412
488504
488586
488641
488734
488820
488875
488968
489056
489109
489202
489286
489341
489435
489516
489572
489664
489747
489803
489895
489984
490039
490132
490221
490274
490368
490453
490508
490602
490685
490742
490836
490915
490971
491063
491142
491198
491289
491379
491434
491526
491618
491673
491767
491861
491916
492009
492103
492161
492252
492349
492404
492496
492601
492654
492748
492856
492911
493005
493109
493165
493256
493358
493413
493505
493602
493655
493749
493841
493896
493988
494083
494140
494231
494330
494388
494480
494583
494637
494730
494826
494879
494973
495082
495138
495231
495342
495397
495489
495593
495649
495743
495838
495894
495988
496079
496136
496228
496320
496378
496470
496562
496618
496710
496802
496857
496952
497047
497103
497196
497295
497353
497445
497546
497603
497695
497792
497849
497942
498044
498100
498193
498298
498355
498446
498545
498601
498692
498788
498842
498937
499028
499084
499177
499268
499326
499417
499506
499566
499659
499745
499801
499893
499985
500041
500133
500225
500281
500374
500473
500530
500622
500722
500779
500872
500976
501031
501124
501219
501274
501368
501468
501525
501617
501726
501782
501872
501980
502034
502128
502220
502275
502369
502457
502513
502605
502694
502750
502842
502931
502985
503078
503168
503222
503316
503404
503461
503555
503648
503704
503796
503894
503950
504041
504145
504199
504293
504391
504446
504540
504641
504699
504790
504891
504947
505039
505135
505193
505286
505384
505440
505534
505631
505688
505779
505886
505942
506034
506142
506196
506291
506386
506442
506535
506623
506683
506775
506860
506917
507010
507096
507152
507245
507316
507372
507464
507534
507588
507681
507755
507809
507901
507980
508036
508131
508211
508268
508361
508449
508507
508599
508687
508743
508836
508916
508970
509063
509143
509197
509290
509368
509425
509518
509601
509657
509749
509838
509894
509986
510075
510133
510225
510318
510372
510466
510557
510613
510706
510792
510849
510943
511027
511086
511178
511257
511313
511405
511487
511543
511635
511719
511773
511866
511956
512012
512106
512207
512263
512355
512468
512524
512616
512734
512789
512883
512998
513056
513148
513258
513314
513408
513504
513559
513652
513745
513801
513896
513979
514036
514130
514210
514269
514361
514440
514496
514589
514672
514728
514819
514911
514966
515060
515153
515209
515302
515405
515461
515553
515654
515711
515803
515898
515956
516049
516149
516203
516298
516395
516452
516545
516642
516700
516792
516894
516949
517043
517147
517202
517295
517394
517452
517545
517641
517698
517790
517888
517942
518035
518132
518188
518282
518374
518430
518522
518616
518671
518763
518855
518912
519005
519102
519156
519250
519347
519402
519496
519590
519646
519739
519828
519884
519976
520067
520122
520214
520308
520365
520460
520556
520613
520705
520802
520859
520951
521044
521102
521194
521289
521345
521439
521535
521591
521684
521780
521837
521930
522020
522075
522168
522254
522310
522404
522496
522553
522646
522743
522801
522893
522995
523050
523144
523244
523298
523391
523496
523552
523644
523752
523810
523904
524007
524062
524152
524249
524305
524399
524494
524550
524644
524732
524791
524884
524975
525033
525125
525219
525274
525367
525464
525518
525611
525706
525761
525854
525943
526003
526094
526193
526250
526342
526446
526501
526596
526682
526740
526833
526912
526971
527063
527138
527196
527289
527357
527413
527505
527574
527627
527719
527801
527857
527949
528041
528098
528191
528291
528347
528440
528550
528608
528700
528809
528868
528960
529065
529121
529214
529314
529371
529464
529568
529621
529713
529815
529868
529962
530055
530113
530208
530300
530356
530450
530545
530601
530694
530793
530848
530940
531041
531097
531192
531283
531340
531433
531532
531589
531680
531777
531834
531926
532025
532080
532172
532266
532325
532419
532512
532571
532663
532760
532816
532907
533005
533059
533153
533246
533302
533396
533493
533549
533642
533739
533795
533889
533981
534038
534132
534222
534279
534373
534465
534520
534615
534706
534763
534856
534949
535003
535095
535184
535241
535335
535428
535483
535578
535664
535720
535814
535902
535958
536050
536142
536201
536293
536390
536446
536540
536632
536692
536785
536877
536934
537026
537117
537175
537268
537360
537417
537508
537599
537654
537748
537837
537893
537987
538085
538140
538233
538330
538386
538478
538577
538632
538727
538817
538873
538967
539059
539117
539210
539302
539357
539450
539542
539595
539686
539772
539827
539922
540011
540066
540162
540243
540301
540395
540479
540536
540628
540717
540771
540863
540953
541008
541102
541192
541248
541342
541425
541480
541574
541655
541713
541805
541885
541945
542036
542122
542178
542270
542356
542412
542505
542592
542650
542745
542832
542889
542982
543070
543125
543219
543293
543354
543446
543525
543582
543674
543756
543813
543908
543992
544051
544146
544237
544294
544377
544478
544535
544626
544727
544782
544876
544974
545029
545122
545215
545270
545364
545455
545510
545602
545692
545747
545839
545936
545990
546084
546179
546235
546329
546420
546480
546573
546663
546719
546811
546906
546962
547054
547148
547203
547298
547385
547441
547535
547623
547681
547774
547866
547919
548013
548104
548161
548254
548348
548405
548493
548592
548651
548744
548833
548898
548987
549088
549145
549238
549327
549384
549478
549567
549624
549718
549806
549863
549956
550046
550105
550197
550288
550348
550440
550530
550588
550682
550766
550825
550919
551004
551061
551153
551243
551300
551393
551495
551551
551644
551753
551809
551905
552009
552067
552158
552259
552315
552407
552511
552566
552659
552757
552813
552907
553005
553061
553154
553251
553307
553399
553500
553555
553649
553744
553804
553897
554004
554061
554154
554261
554316
554409
554516
554572
554666
554770
554827
554921
555019
555075
555168
555264
555320
555413
555509
555563
555659
555755
555812
555906
556009
556064
556157
556254
556310
556401
556498
556554
556646
556747
556803
556897
556992
557049
557141
557230
557288
557380
557470
557524
557616
557711
557765
557859
557955
558012
558103
558209
558267
558358
558473
558528
558623
558737
558793
558886
558999
559056
559147
559254
559311
559404
559508
559564
559658
559758
559815
559906
560005
560060
560150
560249
560305
560399
560494
560548
560642
560742
560798
560891
560988
561047
561139
561243
561297
561390
561493
561548
561642
561748
561804
561897
561999
562055
562147
562254
562308
562402
562509
562565
562659
562762
562819
562911
563013
563069
563160
563260
563314
563409
563508
563565
563659
563760
563818
563911
564011
564066
564160
564254
564309
564404
564510
564565
564659
564779
564835
564929
565052
565108
565202
565315
565373
565465
565566
565623
565717
565811
565866
565958
566061
566117
566212
566320
566376
566471
566578
566634
566727
566833
566888
566982
567079
567136
567231
567330
567387
567479
567581
567641
567733
567846
567901
567994
568099
568157
568251
568358
568414
568507
568609
568665
568758
568865
568923
569017
569119
569175
569267
569369
569424
569517
569623
569677
569772
569873
569935
570030
570135
570193
570286
570394
570449
570543
570647
570703
570798
570899
570957
571050
571153
571208
571301
571401
571461
571556
571663
571719
571812
571921
571980
572072
572177
572232
572325
572431
572487
572582
572686
572743
572836
572942
572997
573089
573193
573249
573344
573448
573505
573599
573702
573758
573851
573943
574002
574096
574194
574248
574344
574440
574496
574592
574688
574746
574840
574950
575008
575101
575209
575263
575358
575462
575518
575612
575716
575776
575869
575978
576033
576128
576234
576289
576383
576482
576542
576635
576736
576793
576885
576984
577040
577133
577233
577288
577382
577484
577540
577634
577736
577793
577888
577985
578039
578134
578237
578294
578388
578492
578550
578641
578754
578809
578902
579010
579066
579161
579265
579323
579415
579531
579588
579681
579796
579851
579946
580054
580112
580204
580316
580372
580466
580578
580634
580730
580837
580895
580989
581099
581154
581247
581366
581423
581517
581633
581688
581783
581885
581944
582038
582138
582195
582288
582391
582444
582537
582647
582704
582797
582904
582960
583053
583161
583216
583312
583428
583486
583580
583696
583752
583845
583952
584006
584102
584206
584262
584358
584461
584515
584610
584703
584760
584852
584950
585004
585098
585199
585255
585349
585449
585507
585600
585702
585759
585850
585961
586016
586111
586220
586277
586371
586474
586528
586621
586722
586777
586870
586977
587032
587126
587232
587291
587384
587487
587543
587636
587733
587789
587884
587969
588026
588120
588207
588265
588359
588448
588506
588599
588695
588751
588844
588941
588997
589092
589192
589248
589343
589444
589501
589594
589698
589753
589847
589946
590000
590093
590186
590241
590335
590433
590489
590586
590685
590744
590838
590941
590996
591091
591192
591247
591341
591435
591490
591583
591677
591732
591826
591924
591979
592074
592176
592233
592328
592430
592487
592581
592682
592738
592831
592939
592994
593087
593193
593251
593344
593449
593504
593597
593702
593758
593852
593957
594013
594108
594217
594275
594370
594477
594532
594627
594730
594785
594880
594985
595042
595135
595245
595301
595395
595501
595553
595648
595754
595809
595904
596006
596063
596155
596260
596315
596407
596507
596562
596656
596754
596810
596905
597007
597064
597157
597259
597315
597408
597513
597568
597661
597772
597829
597922
598035
598091
598184
598293
598349
598444
598545
598600
598695
598795
598852
598946
599049
599104
599197
599301
599355
599449
599554
599610
599705
599813
599868
599962
600071
600128
600223
600330
600386
600481
600588
600648
600741
600848
600904
600997
601100
601155
601250
601347
601404
601497
601591
601648
601740
601841
601895
601989
602089
602144
602238
602330
602386
602480
602570
602629
602722
602814
602871
602965
603058
603112
603207
603303
603358
603453
603559
603616
603709
603816
603872
603966
604067
604121
604216
604318
604373
604472
604573
604630
604722
604818
604874
604967
605058
605113
605212
605293
605348
605445
605526
605584
605676
605759
605816
605909
605993
606048
606141
606225
606281
606375
606456
606517
606611
606708
606765
606858
606958
607015
607108
607206
607263
607356
607447
607503
607597
607685
607742
607836
607918
607975
608068
608146
608203
608296
608371
608427
608519
608595
608651
608744
608825
608879
608973
609051
609106
609200
609281
609338
609433
609515
609571
609664
609749
609807
609899
609990
610045
610139
610225
610281
610375
610467
610523
610616
610704
610761
610855
610937
610995
611087
611169
611227
611320
611404
611460
611553
611637
611691
611786
611868
611924
612018
612100
612157
612250
612330
612388
612480
612561
612617
612710
612794
612849
612944
613030
613086
613180
613273
613330
613424
613512
613572
613665
613756
613813
613905
613996
614051
614146
614232
614286
614380
614470
614525
614620
614700
614758
614851
614931
614987
615079
615160
615216
615309
615390
615445
615540
615619
615676
615770
615850
615909
616003
616084
616143
616235
616323
616379
616471
616563
616619
616712
616804
616859
616955
617038
617094
617189
617272
617330
617422
617506
617565
617658
617743
617800
617893
617979
618034
618129
618210
618270
618365
618452
618511
618605
618695
618751
618843
618934
618991
619083
619178
619232
619326
619416
619473
619568
619656
619714
619807
619897
619954
620047
620134
620194
620287
620375
620430
620523
620607
620664
620758
620841
620899
620993
621076
621134
621228
621312
621368
621462
621552
621608
621702
621798
621855
621950
622040
622098
622193
622280
622338
622431
622521
622577
622671
622754
622810
622904
622991
623046
623139
623229
623286
623380
623471
623533
623625
623716
623774
623866
623957
624014
624107
624197
624252
624345
624429
624488
624581
624665
624721
624814
624903
624959
625052
625142
625197
625290
625376
625431
625525
625617
625673
625767
625856
625917
626009
626100
626158
626252
626347
626401
626495
626589
626645
626740
626829
626887
626980
627074
627131
627224
627318
627374
627468
627563
627617
627712
627799
627855
627949
628036
628093
628185
628268
628326
628418
628504
628559
628651
628736
628791
628885
628976
629033
629127
629216
629275
629367
629459
629517
629610
629705
629760
629853
629945
630004
630098
630190
630245
630339
630425
630483
630576
630666
630722
630814
630906
630958
631052
631140
631197
631293
631383
631442
631536
631626
631683
631775
631864
631922
632014
632103
632160
632254
632339
632399
632493
632585
632644
632736
632828
632886
632980
633074
633129
633222
633317
633371
633465
633553
633610
633704
633799
633856
633950
634049
634104
634197
634299
634352
634447
634541
634597
634690
634788
634844
634937
635035
635091
635184
635281
635335
635428
635525
635580
635674
635772
635830
635924
636026
636082
636174
636273
636332
636426
636527
636582
636676
636780
636838
636930
637029
637085
637180
637276
637331
637426
637522
637578
637672
637762
637818
637912
637999
638056
638150
638229
638288
638383
638469
638524
638618
638708
638764
638858
638954
639012
639105
639218
639273
639365
639470
639526
639621
639720
639778
639873
639973
640031
640123
640224
640282
640375
640474
640529
640623
640717
640772
640868
640963
641020
641113
641209
641266
641359
641457
641512
641605
641698
641757
641852
641951
642007
642100
642206
642262
642357
642460
642515
642610
642710
642767
642862
642965
643024
643119
643221
643276
643368
643468
643523
643617
643711
643769
643865
643960
644018
644112
644218
644272
644365
644473
644529
644623
644722
644779
644873
644972
645031
645123
645226
645285
645379
645477
645538
645631
645735
645795
645887
645995
646051
646144
646244
646302
646395
646492
646550
646647
646742
646799
646892
646993
647048
647142
647239
647294
647388
647482
647540
647635
647735
647793
647888
647984
648044
648135
648240
648298
648393
648492
648550
648643
648760
648818
648910
649029
649088
649184
649290
649350
649441
649556
649611
649703
649799
649875
649969
650074
650130
650225
650333
650389
650483
650596
650653
650746
650857
650915
651010
651112
651170
651263
651365
651420
651516
651618
651674
651767
651870
651926
652020
652122
652179
652272
652379
652436
652529
652637
652692
652787
652890
652948
653041
653147
653202
653296
653402
653457
653551
653651
653708
653804
653902
653959
654054
654149
654206
654297
654391
654446
654541
654625
654681
654775
654861
654914
655008
655087
655144
655237
655309
655367
655460
655545
655601
655694
655789
655844
655939
656047
656105
656200
656311
656371
656464
656574
656630
656725
656826
656882
656978
657078
657134
657227
657327
657382
657476
657576
657629
657724
657817
657874
657968
658065
658122
658215
658321
658378
658472
658587
658642
658738
658843
658900
658995
659102
659161
659255
659367
659423
659518
659622
659680
659775
659880
659937
660030
660139
660196
660289
660404
660459
660553
660660
660719
660813
660921
660975
661068
661177
661235
661330
661431
661490
661584
661686
661744
661838
661947
662003
662099
662206
662264
662360
662476
662534
662629
662749
662811
662906
663038
663096
663190
663313
663372
663466
663584
663641
663737
663855
663912
664006
664116
664174
664268
664370
664425
664521
664626
664681
664776
664880
664937
665031
665137
665193
665288
665396
665455
665549
665675
665732
665826
665951
666008
666103
666212
666273
666369
666486
666543
666637
666753
666812
666906
667018
667077
667171
667286
667343
667436
667556
667613
667709
667823
667882
667975
668090
668148
668242
668360
668418
668513
668624
668682
668776
668882
668939
669033
669142
669197
669293
669401
669459
669555
669664
669720
669814
669923
669979
670074
670189
670247
670342
670468
670525
670619
670743
670801
670896
671022
671080
671175
671297
671355
671451
671563
671622
671717
671822
671881
671976
672080
672140
672233
672340
672394
672490
672596
672653
672746
672855
672911
673005
673114
673170
673266
673377
673436
673531
673644
673701
673795
673903
673960
674055
674172
674228
674323
674430
674487
674581
674686
674743
674838
674945
675001
675097
675203
675263
675357
675461
675519
675613
675715
675771
675867
675969
676027
676122
676222
676282
676376
676486
676541
676636
676736
676791
676887
676984
677042
677136
677236
677293
677388
677486
677542
677637
677733
677790
677886
677978
678039
678132
678243
678298
678392
678504
678559
678654
678766
678823
678916
679026
679084
679177
679286
679342
679438
679539
679596
679690
679802
679858
679952
680059
680114
680209
680317
680375
680471
680576
680634
680728
680831
680888
680982
681087
681143
681237
681337
681394
681490
681584
681643
681738
681835
681892
681987
682081
682138
682233
682331
682388
682483
682570
682629
682722
682812
682869
682964
683053
683109
683205
683291
683346
683440
683524
683582
683676
683761
683820
683914
684005
684062
684154
684251
684309
684403
684501
684558
684654
684753
684812
684906
685010
685067
685161
685264
685320
685417
685513
685569
685666
685762
685820
685913
686009
686066
686160
686247
686302
686397
686482
686540
686635
686726
686783
686875
686971
687026
687120
687211
687268
687363
687459
687514
687609
687703
687763
687857
687946
688008
688102
688201
688257
688351
688449
688505
688600
688698
688755
688849
688946
689003
689096
689196
689253
689346
689452
689507
689602
689702
689758
689853
689954
690009
690103
690201
690258
690353
690452
690510
690606
690705
690762
690856
690952
691009
691103
691204
691259
691355
691457
691516
691612
691718
691777
691870
691972
692029
692123
692220
692275
692370
692465
692523
692619
692714
692774
692867
692968
693025
693119
693224
693280
693375
693480
693540
693634
693743
693801
693895
693999
694055
694150
694250
694309
694404
694506
694562
694654
694757
694813
694907
695004
695061
695157
695254
695311
695407
695506
695562
695657
695764
695823
695918
696027
696084
696178
696299
696355
696448
696564
696619
696713
696826
696882
696977
697093
697152
697247
697352
697408
697502
697604
697661
697756
697858
697916
698011
698122
698179
698273
698383
698438
698533
698643
698701
698797
698919
698975
699069
699182
699240
699336
699446
699505
699600
699712
699769
699862
699975
700032
700126
700229
700286
700382
700484
700542
700636
700744
700799
700893
701002
701058
701153
701264
701321
701415
701526
701582
701676
701801
701857
701953
702073
702131
702224
702333
702390
702482
702591
702648
702744
702853
702911
703005
703114
703170
703264
703379
703434
703530
703647
703707
703800
703922
703979
704074
704191
704249
704345
704462
704521
704616
704741
704796
704891
705005
705066
705160
705279
705337
705432
705545
705601
705697
705797
705855
705950
706042
706099
706193
706283
706342
706435
706532
706588
706683
706786
706844
706940
707050
707109
707203
707314
707370
707465
707575
707632
707728
707844
707902
707995
708115
708170
708266
708374
708431
708526
708637
708697
708791
708905
708963
709059
709173
709231
709327
709433
709489
709584
709690
709745
709839
709948
710004
710099
710203
710260
710353
710458
710515
710610
710719
710774
710869
710977
711034
711130
711236
711294
711388
711494
711551
711646
711758
711814
711911
712014
712071
712165
712269
712326
712420
712523
712578
712675
712774
712832
712925
713030
713088
713181
713287
713342
713437
713543
713600
713695
713794
713853
713946
714050
714107
714200
714303
714360
714455
714551
714609
714704
714803
714862
714956
715061
715118
715211
715318
715373
715468
715581
715640
715734
715856
715913
716007
716120
716177
716273
716373
716430
716524
716631
716688
716783
716896
716952
717047
717152
717210
717305
717414
717471
717565
717673
717728
717823
717926
717983
718078
718185
718246
718341
718449
718508
718602
718712
718771
718866
718972
719034
719127
719243
719300
719395
719505
719563
719658
719763
719821
719915
720024
720081
720176
720285
720342
720437
720544
720601
720697
720807
720863
720957
721070
721126
721221
721332
721387
721482
721582
721640
721734
721835
721892
721986
722088
722144
722240
722335
722395
722489
722586
722642
722736
722839
722896
722992
723099
723160
723255
723361
723420
723513
723624
723681
723776
723890
723946
724041
724145
724204
724298
724407
724464
724558
724668
724724
724820
724927
724985
725079
725182
725238
725332
725439
725492
725587
725699
725757
725853
725955
726013
726107
726211
726266
726360
726464
726519
726614
726726
726784
726878
726989
727048
727143
727248
727305
727400
727507
727564
727659
727765
727822
727917
728014
728070
728164
728260
728317
728412
728509
728567
728661
728765
728824
728917
729027
729086
729181
729286
729344
729438
729555
729609
729703
729820
729876
729972
730079
730135
730230
730335
730393
730487
730595
730652
730745
730849
730905
731000
731098
731156
731251
731351
731407
731502
731595
731658
731753
731851
731910
732005
732103
732162
732257
732360
732417
732510
732615
732670
732767
732862
732920
733015
733114
733173
733267
733370
733427
733520
733623
733679
733774
733873
733931
734025
734124
734182
734275
734375
734433
734526
734626
734683
734778
734880
734938
735032
735140
735197
735291
735399
735454
735550
735652
735710
735805
735911
735970
736064
736168
736225
736319
736418
736476
736571
736670
736728
736822
736927
736983
737077
737182
737237
737333
737432
737490
737586
737686
737744
737838
737942
737997
738091
738188
738246
738342
738435
738492
738587
738682
738741
738834
738931
738990
739083
739183
739239
739334
739434
739490
739586
739684
739744
739837
739935
739990
740086
740172
740228
740323
740413
740467
740563
740645
740706
740802
740886
740947
741040
741141
741197
741291
741393
741450
741544
741644
741703
741797
741898
741956
742050
742148
742204
742299
742393
742452
742548
742640
742698
742792
742887
742947
743040
743140
743197
743292
743384
743443
743538
743632
743692
743786
743884
743940
744034
744129
744185
744278
744376
744431
744526
744623
744682
744777
744884
744939
745033
745132
745188
745282
745377
745433
745529
745626
745683
745775
745880
745936
746029
746133
746188
746281
746377
746437
746532
746635
746693
746786
746891
746947
747039
747147
747203
747298
747413
747470
747564
747674
747731
747826
747926
747984
748079
748167
748224
748319
748411
748469
748563
748660
748716
748810
748901
748959
749053
749144
749201
749296
749392
749449
749544
749638
749700
749793
749899
749957
750050
750163
750220
750315
750434
750493
750587
750710
750767
750861
750961
751019
751114
751207
751267
751360
751451
751508
751601
751690
751747
751840
751938
751994
752088
752194
752252
752345
752462
752520
752612
752727
752782
752876
752987
753045
753136
753242
753299
753393
753492
753548
753642
753741
753798
753892
753985
754043
754137
754231
754286
754380
754474
754530
754623
754720
754775
754869
754964
755022
755116
755204
755263
755356
755450
755506
755600
755691
755747
755842
755934
755990
756085
756179
756237
756330
756427
756484
756577
756673
756730
756824
756919
756976
757069
757159
757217
757310
757400
757457
757551
757644
757698
757792
757882
757938
758033
758121
758180
758275
758367
758427
758521
758612
758669
758761
758853
758911
759004
759100
759156
759252
759339
759393
759489
759572
759628
759721
759807
759864
759959
760046
760103
760197
760289
760347
760442
760531
760588
760683
760777
760834
760926
761020
761077
761171
761260
761316
761410
761497
761553
761648
761738
761795
761890
761982
762041
762134
762225
762280
762372
762461
762516
762610
762699
762756
762850
762945
763002
763095
763187
763243
763336
763431
763487
763580
763673
763729
763823
763914
763971
764066
764152
764209
764303
764389
764447
764540
764623
764680
764773
764859
764915
765009
765092
765149
765244
765324
765384
765476
765564
765622
765714
765813
765868
765961
766056
766111
766206
766299
766356
766450
766550
766608
766702
766798
766854
766947
767037
767092
767186
767279
767335
767431
767519
767577
767670
767758
767815
767907
767998
768054
768147
768244
768299
768393
768485
768542
768635
768722
768780
768874
768963
769021
769114
769205
769259
769353
769437
769495
769590
769680
769737
769831
769926
769985
770078
770178
770235
770328
770422
770478
770572
770664
770723
770818
770913
770970
771062
771158
771216
771308
771405
771463
771557
771661
771717
771812
771918
771976
772068
772177
772234
772327
772433
772488
772583
772689
772746
772839
772948
773004
773096
773202
773257
773352
773454
773512
773606
773715
773772
773865
773972
774028
774121
774226
774280
774375
774475
774531
774624
774723
774780
774873
774972
775028
775121
775225
775284
775378
775494
775551
775643
775759
775817
775911
776021
776079
776174
776288
776346
776440
776559
776616
776710
776820
776876
776970
777078
777137
777229
777343
777399
777492
777599
777658
777752
777860
777917
778010
778130
778185
778277
778399
778457
778552
778667
778725
778818
778933
778990
779083
779203
779260
779355
779466
779523
779617
779730
779787
779881
779997
780054
780149
780261
780320
780413
780526
780584
780677
780794
780850
780944
781059
781118
781212
781324
781381
781475
781584
781643
781738
781849
781908
782001
782109
782166
782259
782367
782424
782519
782638
782696
782790
782910
782969
783063
783185
783244
783339
783451
783511
783604
783719
783776
783869
783983
784040
784135
784242
784300
784393
784508
784566
784660
784789
784847
784942
785065
785123
785218
785335
785393
785488
785604
785661
785757
785871
785928
786022
786127
786182
786277
786383
786440
786535
786643
786701
786796
786904
786960
787054
787161
787217
787311
787425
787484
787578
787699
787756
787850
787963
788021
788116
788228
788286
788380
788499
788557
788652
788761
788819
788915
789019
789077
789170
789279
789334
789428
789537
789594
789690
789792
789850
789945
790043
790101
790194
790283
790339
790433
790539
790596
790691
790805
790862
790957
791066
791125
791219
791332
791390
791485
791597
791654
791749
791864
791923
792018
792126
792184
792279
792384
792440
792535
792627
792685
792779
792872
792931
793026
793129
793186
793280
793384
793442
793536
793627
793683
793775
793865
793922
794015
794094
794150
794244
794317
794371
794466
794543
794600
794694
794786
794844
794938
795042
795100
795193
795301
795358
795452
795563
795620
795715
795825
795881
795976
796079
796135
796231
796320
796378
796473
796557
796615
796710
796793
796852
796947
797033
797090
797182
797276
797329
797422
797515
797572
797668
797762
797820
797913
798016
798073
798167
798264
798320
798416
798511
798570
798665
798760
798822
798915
799018
799075
799167
799273
799329
799425
799533
799590
799685
799796
799852
799946
800056
800113
800209
800303
800363
800458
800563
800620
800714
800818
800876
800970
801069
801123
801219
801314
801371
801466
801564
801621
801714
801814
801871
801964
802061
802116
802211
802306
802364
802458
802556
802614
802708
802808
802864
802958
803054
803108
803203
803293
803352
803446
803541
803597
803690
803789
803844
803938
804037
804092
804188
804280
804337
804430
804525
804583
804676
804770
804829
804921
805020
805076
805169
805271
805327
805423
805522
805580
805672
805768
805825
805917
806007
806065
806158
806251
806308
806402
806497
806554
806648
806741
806796
806889
806979
807035
807128
807221
807277
807373
807464
807520
807616
807705
807763
807858
807953
808011
808104
808203
808260
808353
808449
808505
808599
808686
808745
808840
808925
808983
809077
809161
809218
809312
809395
809453
809546
809632
809687
809781
809871
809926
810020
810112
810169
810262
810360
810416
810510
810607
810666
810759
810859
810916
811010
811114
811172
811265
811367
811424
811517
811617
811672
811767
811864
811921
812014
812116
812173
812266
812370
812426
812519
812610
812665
812760
812848
812905
813001
813087
813144
813237
813320
813378
813472
813557
813615
813706
813801
813858
813951
814045
814103
814198
814295
814353
814447
814543
814599
814693
814792
814847
814942
815047
815103
815198
815293
815352
815445
815541
815597
815690
815789
815845
815939
816039
816096
816190
816286
816343
816436
816535
816593
816686
816782
816838
816932
817030
817087
817180
817274
817332
817425
817526
817583
817676
817774
817829
817923
818020
818077
818170
818263
818320
818413
818516
818572
818664
818778
818833
818928
819042
819098
819192
819300
819355
819449
819559
819614
819711
819811
819867
819961
820056
820114
820207
820303
820359
820452
820549
820604
820699
820796
820854
820949
821047
821105
821199
821310
821366
821459
821567
821624
821720
821817
821875
821970
822072
822129
822222
822333
822389
822481
822591
822648
822742
822848
822905
822999
823101
823158
823251
823362
823419
823514
823622
823679
823774
823878
823934
824028
824131
824185
824281
824376
824436
824530
824628
824686
824780
824875
824931
825024
825120
825175
825269
825367
825422
825518
825618
825674
825768
825871
825926
826019
826126
826182
826277
826378
826436
826531
826635
826694
826787
826891
826947
827041
827146
827202
827297
827403
827460
827554
827663
827719
827812
827920
827974
828069
828174
828231
828325
828432
828491
828584
828692
828748
828843
828950
829006
829101
829210
829269
829362
829467
829525
829617
829720
829778
829873
829986
830043
830137
830250
830307
830402
830510
830565
830660
830771
830827
830922
831031
831089
831182
831290
831346
831440
831538
831596
831690
831798
831855
831948
832055
832113
832207
832312
832366
832461
832562
832620
832714
832821
832878
832971
833078
833135
833227
833328
833383
833479
833565
833622
833716
833811
833870
833963
834073
834129
834223
834335
834392
834486
834592
834650
834743
834847
834903
834996
835100
835156
835251
835351
835411
835505
835614
835671
835764
835879
835935
836030
836148
836204
836300
836406
836466
836560
836668
836724
836819
836924
836981
837076
837174
837234
837327
837423
837482
837576
837665
837722
837818
837906
837962
838057
838162
838221
838314
838433
838490
838584
838696
838752
838847
838953
839009
839103
839202
839258
839351
839448
839504
839598
839694
839750
839846
839934
839993
840087
840176
840235
840327
840425
840482
840575
840669
840725
840821
840906
840961
841056
841139
841198
841292
841373
841431
841524
841614
841670
841763
841858
841913
842006
842099
842157
842252
842354
842413
842505
842613
842669
842763
842864
842922
843016
843109
843170
843265
843355
843412
843507
843593
843650
843744
843832
843886
843981
844074
844127
844218
844312
844368
844463
844551
844609
844703
844793
844849
844943
845035
845091
845186
845274
845332
845427
845524
845582
845675
845779
845837
845930
846036
846092
846187
846288
846344
846440
846537
846595
846688
846781
846840
846933
847022
847078
847172
847261
847316
847411
847498
847555
847650
847743
847801
847894
847994
848049
848141
848247
848301
848396
848495
848552
848645
848751
848809
848902
849010
849064
849159
849258
849316
849410
849512
849570
849663
849763
849821
849914
850018
850073
850168
850262
850320
850416
850500
850557
850649
850739
850799
850893
850993
851048
851140
851246
851302
851397
851497
851555
851648
851748
851803
851897
852001
852057
852152
852251
852309
852404
852497
852556
852649
852741
852800
852894
852990
853046
853141
853236
853295
853389
853484
853542
853636
853725
853784
853878
853965
854023
854117
854198
854254
854349
854430
854487
854582
854669
854725
854819
854917
854976
855069
855172
855229
855325
855422
855480
855576
855672
855730
855822
855920
855978
856072
856166
856224
856319
856403
856461
856556
856647
856703
856797
856882
856941
857034
857108
857164
857257
857325
857382
857474
857547
857604
857697
857775
857834
857928
858008
858066
858159
858244
858303
858397
858491
858550
858643
858742
858800
858894
858990
859044
859138
859220
859278
859372
859458
859517
859610
859701
859759
859851
859949
860005
860099
860195
860252
860346
860434
860493
860587
860683
860742
860835
860936
860994
861087
861190
861246
861339
861436
861494
861589
861677
861733
861826
861925
861983
862075
862186
862242
862337
862441
862502
862593
862701
862760
862852
862955
863012
863107
863211
863267
863362
863464
863521
863614
863712
863769
863862
863957
864013
864107
864210
864268
864362
864471
864529
864622
864733
864787
864881
864991
865048
865143
865251
865308
865401
865516
865572
865665
865778
865836
865933
866037
866094
866186
866289
866347
866440
866545
866602
866696
866807
866863
866958
867064
867122
867215
867327
867383
867478
867593
867650
867746
867860
867917
868010
868120
868175
868270
868376
868432
868527
868632
868691
868783
868892
868948
869041
869148
869205
869300
869408
869465
869558
869672
869730
869824
869937
869993
870088
870195
870252
870346
870457
870513
870607
870715
870772
870867
870969
871030
871125
871226
871286
871379
871483
871538
871633
871739
871796
871890
871992
872053
872146
872253
872312
872405
872514
872570
872665
872770
872827
872921
873017
873077
873168
873259
873316
873408
873494
873551
873645
873729
873783
873878
873961
874022
874117
874206
874266
874361
874459
874518
874610
874721
874777
874871
874988
875048
875142
875264
875323
875416
875530
875586
875681
875789
875848
875942
876048
876108
876200
876299
876357
876452
876551
876609
876705
876805
876863
876954
877053
877109
877203
877298
877355
877449
877546
877604
877698
877793
877854
877948
878044
878103
878196
878293
878351
878446
878548
878606
878701
878804
878862
878955
879062
879116
879210
879307
879365
879460
879551
879612
879705
879803
879860
879952
880051
880108
880202
880301
880359
880455
880559
880618
880712
880812
880870
880963
881059
881114
881209
881296
881356
881450
881550
881605
881699
881793
881851
881945
882039
882095
882189
882281
882338
882434
882534
882592
882686
882788
882845
882939
883037
883093
883188
883287
883345
883439
883545
883603
883695
883801
883858
883951
884056
884111
884205
884300
884359
884454
884552
884610
884705
884803
884862
884956
885050
885107
885202
885297
885354
885450
