81
130
237
333
381
486
586
636
738
854
902
1006
1122
1172
1279
1386
1435
1537
1652
1699
1804
1919
1967
2072
2179
2229
2329
2437
2484
2585
2702
2750
2855
2971
3020
3121
3232
3279
3380
3486
3534
3638
3747
3796
3898
4009
4057
4160
4268
4315
4419
4520
4569
4672
4785
4834
4936
5057
5106
5210
5328
5377
5480
5591
5638
5741
5857
5904
6007
6122
6171
6272
6384
6432
6533
6636
6685
6787
6892
6941
7043
7150
7201
7302
7411
7458
7560
7664
7712
7815
7924
7974
8073
8189
8238
8339
8452
8499
8604
8716
8765
8866
8988
9036
9136
9253
9301
9403
9515
9563
9663
9775
9823
9924
10037
10083
10188
10292
10340
10444
10541
10591
10691
10795
10844
10946
11051
11099
11202
11308
11356
11461
11578
11627
11727
11847
11896
12000
12111
12160
12260
12380
12428
12529
12649
12697
12801
12916
12965
13065
13176
13225
13326
13443
13492
13595
13708
13758
13858
13968
14015
14117
14215
14263
14368
14468
14516
14620
14726
14774
14876
14978
15025
15128
15236
15284
15387
15500
15549
15651
15768
15816
15919
16030
16078
16182
16301
16351
16454
16576
16624
16728
16844
16893
16996
17107
17156
17256
17378
17425
17528
17644
17692
17798
17902
17952
18052
18165
18213
18318
18432
18480
18585
18696
18745
18847
18956
19004
19109
19224
19273
19377
19498
19547
19649
19766
19814
19919
20031
20079
20184
20301
20349
20451
20567
20614
20717
20826
20874
20978
21086
21134
21235
21348
21396
21500
21607
21656
21759
21865
21915
22017
22131
22180
22282
22400
22449
22554
22668
22717
22819
22930
22979
23080
23195
23244
23348
23462
23512
23614
23721
23769
23872
23974
24021
24125
24232
24282
24383
24493
24541
24647
24744
24793
24897
25003
25053
25158
25266
25317
25420
25526
25574
25679
25779
25828
25931
26039
26089
26190
26302
26350
26453
26558
26605
26709
26811
26860
26964
27069
27117
27218
27324
27372
27476
27573
27621
27722
27822
27870
27970
28075
28124
28225
28330
28378
28484
28583
28631
28733
28840
28889
28989
29103
29152
29254
29368
29417
29523
29631
29680
29785
29898
29947
30056
30168
30215
30323
30428
30478
30582
30686
30735
30839
30948
30996
31105
31209
31258
31369
31466
31515
31623
31724
31771
31882
31982
32031
32139
32241
32290
32396
32493
32541
32649
32754
32802
32909
33017
33066
33174
33277
33326
33431
33528
33577
33685
33784
33833
33938
34042
34090
34192
34295
34341
34449
34552
34601
34714
34814
34864
34974
35076
35124
35235
35330
35379
35488
35590
35639
35744
35852
35900
36007
36105
36153
36264
36349
36397
36504
36598
36647
36752
36848
36896
37000
37094
37142
37250
37336
37385
37492
37590
37640
37745
37850
37899
38003
38107
38155
38265
38361
38410
38516
38622
38670
38775
38885
38931
39041
39136
39184
39293
39397
39445
39550
39658
39706
39817
39912
39961
40070
40173
40222
40327
40432
40480
40588
40685
40733
40841
40938
40987
41095
41194
41242
41351
41442
41491
41599
41689
41736
41842
41939
41986
42088
42190
42239
42345
42440
42490
42598
42687
42735
42845
42939
42988
43092
43190
43238
43342
43435
43483
43588
43675
43722
43827
43919
43968
44076
44171
44221
44328
44421
44470
44575
44664
44711
44820
44914
44962
45067
45170
45218
45322
45420
45469
45570
45670
45719
45823
45927
45977
46082
46191
46239
46345
46447
46495
46605
46695
46743
46851
46949
46999
47106
47210
47258
47365
47464
47511
47618
47712
47760
47862
47965
48014
48120
48220
48267
48375
48475
48522
48629
48721
48771
48876
48975
49024
49128
49235
49281
49386
49489
49538
49641
49739
49789
49892
49994
50043
50144
50249
50298
50406
50506
50555
50658
50759
50807
50911
51018
51065
51171
51280
51328
51434
51540
51589
51692
51797
51843
51948
52057
52103
52211
52315
52364
52467
52569
52617
52720
52818
52866
52972
53072
53121
53224
53333
53382
53484
53593
53641
53749
53855
53904
54010
54121
54169
54275
54383
54431
54540
54640
54688
54795
54901
54950
55054
55166
55214
55319
55427
55474
55583
55681
55730
55833
55943
55992
56096
56209
56257
56364
56473
56523
56629
56733
56782
56886
56997
57045
57150
57257
57307
57412
57515
57563
57664
57763
57813
57919
58021
58070
58175
58284
58333
58437
58547
58595
58698
58803
58852
58958
59065
59115
59220
59333
59382
59485
59596
59643
59749
59853
59903
60006
60120
60168
60273
60387
60434
60542
60648
60697
60803
60914
60963
61068
61182
61229
61337
61437
61484
61590
61692
61740
61843
61952
62000
62106
62215
62263
62369
62474
62526
62629
62747
62794
62902
63019
63068
63174
63287
63337
63442
63556
63604
63710
63826
63874
63980
64092
64140
64244
64348
64394
64501
64605
64654
64761
64866
64915
65020
65121
65169
65271
65380
65429
65535
65644
65693
65797
65904
65954
66062
66162
66210
66315
66423
66474
66576
66693
66741
66844
66953
66999
67105
67213
67263
67364
67480
67529
67634
67744
67791
67899
68000
68048
68155
68264
68314
68419
68530
68578
68686
68789
68837
68943
69047
69097
69199
69310
69357
69465
69570
69618
69726
69822
69872
69977
70077
70125
70227
70333
70381
70487
70592
70641
70745
70847
70895
70999
71107
71155
71262
71365
71414
71520
71617
71667
71769
71875
71923
72027
72136
72185
72291
72398
72448
72553
72657
72706
72812
72922
72970
73076
73188
73237
73343
73448
73496
73597
73708
73756
73862
73971
74019
74126
74233
74281
74385
74489
74535
74642
74750
74797
74902
75009
75058
75159
75259
75309
75410
75510
75557
75662
75765
75813
75918
76028
76076
76179
76287
76334
76440
76547
76596
76700
76810
76861
76962
77076
77124
77231
77336
77384
77490
77601
77650
77752
77865
77912
78019
78123
78171
78278
78378
78427
78530
78637
78685
78789
78894
78942
79046
79148
79197
79301
79407
79456
79560
79668
79717
79824
79924
79973
80079
80183
80232
80336
80449
80497
80605
80714
80763
80869
80973
81022
81127
81234
81282
81386
81494
81543
81650
81752
81801
81905
82007
82056
82161
82269
82316
82423
82532
82581
82684
82791
82838
82943
83052
83099
83207
83313
83361
83471
83570
83620
83724
83823
83870
83972
84080
84129
84234
84344
84394
84497
84599
84649
84752
84854
84901
85007
85108
85157
85265
85359
85408
85512
85605
85654
85755
85848
85896
86000
86096
86145
86249
86346
86397
86500
86596
86645
86745
86854
86901
87007
87116
87166
87268
87380
87428
87532
87635
87682
87786
87891
87939
88048
88151
88201
88304
88409
88457
88562
88659
88708
88814
88918
88967
89070
89180
89228
89330
89443
89491
89598
89698
89747
89849
89960
90006
90106
90220
90267
90372
90474
90523
90629
90729
90778
90881
90993
91041
91146
91260
91308
91414
91521
91572
91673
91790
91837
91942
92059
92109
92214
92338
92386
92490
92605
92651
92756
92872
92918
93023
93141
93189
93292
93407
93455
93560
93668
93716
93823
93934
93983
94086
94202
94250
94354
94463
94512
94618
94726
94774
94876
94995
95041
95148
95266
95313
95418
95528
95576
95679
95789
95837
95942
96058
96106
96212
96329
96378
96484
96596
96642
96747
96861
96910
97013
97131
97180
97282
97400
97447
97552
97659
97707
97809
97920
97969
98071
98182
98229
98336
98434
98482
98587
98691
98739
98842
98959
99006
99112
99231
99278
99384
99499
99547
99649
99779
99827
99932
100062
100111
100215
100333
100381
100486
100600
100648
100751
100871
100920
101024
101144
101191
101298
101406
101454
101559
101678
101727
101832
101952
101999
102105
102214
102263
102369
102481
102530
102635
102749
102797
102904
103008
103058
103164
103266
103317
103421
103530
103579
103683
103792
103840
103946
104047
104096
104201
104310
104358
104461
104575
104623
104729
104836
104885
104989
105092
105140
105246
105355
105403
105509
105618
105667
105770
105877
105925
106027
106133
106182
106286
106397
106445
106550
106657
106706
106810
106911
106960
107065
107168
107217
107324
107429
107478
107583
107691
107739
107842
107945
107993
108098
108208
108258
108361
108473
108522
108625
108731
108780
108886
108981
109029
109133
109235
109285
109385
109495
109543
109645
109750
109798
109902
110011
110061
110163
110285
110333
110435
110561
110609
110716
110829
110879
110983
111105
111152
111259
111383
111432
111539
111658
111706
111810
111921
111969
112076
112191
112239
112342
112462
112511
112615
112730
112778
112883
112988
113039
113142
113256
113303
113407
113524
113572
113676
113788
113837
113940
114043
114093
114196
114304
114352
114457
114566
114616
114721
114830
114879
114980
115092
115139
115243
115358
115407
115512
115632
115681
115784
115905
115953
116059
116168
116218
116321
116441
116489
116593
116717
116765
116870
116996
117046
117149
117266
117313
117419
117540
117588
117694
117814
117862
117963
118081
118127
118230
118343
118392
118496
118615
118664
118767
118890
118938
119042
119165
119213
119315
119447
119496
119597
119730
119778
119882
120003
120053
120156
120285
120333
120439
120567
120617
120720
120842
120891
120993
121113
121161
121265
121390
121438
121541
121667
121714
121819
121935
121985
122086
122210
122258
122360
122488
122535
122639
122767
122815
122919
123039
123085
123192
123317
123366
123473
123603
123650
123754
123880
123928
124034
124157
124207
124310
124440
124487
124593
124711
124758
124864
124982
125030
125132
125256
125304
125407
125523
125572
125675
125798
125848
125950
126081
126130
126235
126359
126408
126510
126634
126681
126787
126920
126969
127073
127211
127258
127362
127490
127537
127644
127774
127823
127927
128061
128109
128217
128342
128391
128493
128612
128661
128765
128894
128941
129049
129173
129221
129325
129445
129491
129599
129720
129770
129874
129999
130046
130152
130274
130322
130428
130546
130593
130697
130824
130871
130978
131103
131152
131254
131373
131421
131527
131645
131693
131796
131917
131966
132070
132187
132235
132342
132453
132501
132607
132725
132774
132878
133002
133047
133155
133270
133319
133423
133538
133586
133690
133805
133852
133958
134073
134121
134225
134333
134381
134484
134600
134647
134752
134868
134915
135021
135129
135179
135280
135390
135437
135541
135656
135703
135809
135928
135976
136079
136193
136240
136345
136453
136501
136606
136721
136770
136872
136993
137039
137144
137253
137301
137409
137515
137564
137668
137782
137829
137935
138048
138096
138203
138311
138359
138460
138574
138621
138727
138836
138884
138990
139101
139149
139251
139362
139408
139513
139628
139676
139779
139896
139943
140045
140161
140208
140310
140418
140466
140569
140685
140734
140839
140956
141003
141109
141225
141272
141377
141484
141533
141635
141755
141800
141905
142024
142071
142176
142290
142338
142441
142555
142602
142708
142824
142873
142979
143093
143140
143244
143352
143399
143504
143617
143666
143767
143889
143937
144037
144160
144208
144312
144429
144478
144580
144707
144755
144858
144984
145033
145137
145254
145303
145406
145523
145571
145674
145791
145839
145943
146053
146102
146202
146311
146359
146461
146579
146628
146736
146858
146908
147014
147132
147180
147288
147398
147446
147554
147673
147722
147827
147944
147990
148098
148206
148255
148360
148480
148527
148633
148752
148800
148908
149022
149070
149177
149295
149344
149453
149567
149615
149722
149840
149890
149994
150107
150154
150262
150378
150427
150535
150655
150703
150808
150932
150979
151087
151197
151245
151352
151466
151513
151620
151731
151778
151887
151996
152042
152148
152253
152301
152406
152520
152568
152675
152793
152843
152946
153070
153119
153226
153342
153391
153498
153621
153670
153774
153893
153940
154049
154155
154203
154311
154420
154468
154573
154688
154735
154843
154952
155000
155109
155210
155260
155364
155478
155524
155632
155744
155793
155901
156009
156058
156163
156272
156320
156426
156541
156588
156695
156812
156862
156967
157084
157132
157241
157348
157397
157505
157621
157669
157775
157888
157935
158044
158146
158195
158303
158415
158463
158567
158681
158728
158835
158943
158991
159097
159199
159247
159351
159459
159508
159616
159722
159770
159877
159979
160027
160129
160239
160287
160393
160506
160555
160662
160776
160827
160930
161042
161089
161195
161313
161362
161469
161594
161642
161747
161875
161921
162027
162153
162201
162307
162435
162483
162588
162708
162756
162863
162974
163023
163126
163242
163289
163397
163507
163556
163663
163767
163815
163919
164033
164080
164186
164300
164348
164453
164569
164618
164721
164833
164880
164986
165103
165151
165259
165374
165423
165527
165643
165690
165797
165923
165972
166077
166205
166253
166358
166474
166521
166629
166741
166790
166892
167006
167054
167157
167269
167317
167423
167530
167579
167683
167802
167850
167953
168079
168127
168233
168357
168405
168510
168639
168688
168795
168931
168981
169086
169227
169273
169382
169511
169559
169665
169801
169849
169957
170096
170145
170251
170389
170436
170544
170658
170706
170813
170928
170977
171082
171193
171240
171345
171448
171497
171602
171716
171765
171867
171994
172041
172148
172266
172314
172421
172542
172590
172695
172824
172872
172980
173097
173148
173252
173360
173408
173512
173622
173669
173777
173894
173943
174048
174169
174217
174324
174438
174486
174593
174709
174758
174863
174986
175033
175140
175256
175304
175412
175525
175573
175679
175797
175845
175951
176063
176111
176214
176319
176368
176471
176581
176629
176737
176843
176891
176997
177099
177149
177254
177356
177405
177510
177620
177668
177776
177884
177934
178037
178141
178189
178291
178402
178450
178556
178664
178713
178818
178920
178969
179073
179179
179226
179332
179439
179487
179594
179700
179747
179852
179956
180003
180111
180217
180265
180373
180480
180530
180635
180742
180790
180895
180993
181043
181148
181253
181303
181407
181510
181558
181662
181761
181807
181913
182017
182065
182170
182277
182327
182429
182536
182584
182690
182797
182845
182952
183044
183094
183198
183279
183328
183428
183506
183555
183657
183738
183786
183889
183973
184020
184123
184203
184252
184356
184434
184484
184585
184675
184723
184825
184919
184968
185068
185163
185210
185316
185407
185455
185560
185656
185705
185808
185907
185955
186058
186150
186197
186301
186402
186450
186554
186663
186711
186813
186923
186969
187075
187174
187223
187328
187435
187483
187585
187695
187743
187847
187948
187995
188100
188199
188247
188351
188457
188504
188606
188709
188757
188859
188957
189005
189109
189212
189262
189364
189470
189519
189621
189723
189770
189875
189977
190024
190129
190233
190281
190384
190485
190533
190633
190740
190787
190890
190999
191047
191150
191255
191303
191405
191511
191558
191660
191767
191815
191919
192025
192074
192177
192272
192319
192421
192501
192547
192649
192723
192771
192874
192950
192999
193101
193184
193234
193334
193420
193471
193570
193656
193705
193807
193904
193950
194053
194157
194205
194310
194413
194461
194563
194663
194712
194813
194919
194967
195071
195177
195226
195327
195431
195479
195581
195678
195725
195830
195928
195975
196079
196180
196228
196328
196426
196474
196574
196677
196724
196827
196928
196976
197080
197185
197234
197336
197436
197485
197585
197692
197739
197842
197952
198000
198105
198209
198256
198356
198465
198512
198616
198724
198772
198873
198980
199029
199130
199233
199282
199383
199496
199542
199647
199761
199809
199910
200024
200073
200174
200290
200337
200441
200554
200602
200704
200814
200861
200963
201068
201115
201220
201329
201377
201481
201600
201649
201750
201865
201914
202018
202133
202182
202283
202409
202458
202561
202688
202736
202839
202959
203007
203109
203234
203281
203385
203504
203552
203658
203778
203826
203929
204044
204091
204196
204313
204361
204466
204585
204632
204736
204845
204892
204998
205106
205154
205259
205379
205427
205531
205649
205696
205803
205912
205960
206065
206181
206229
206333
206450
206498
206605
206717
206766
206869
206984
207032
207138
207259
207307
207416
207536
207586
207691
207808
207857
207963
208079
208126
208233
208356
208404
208508
208631
208677
208784
208892
208941
209048
209158
209206
209309
209428
209475
209582
209699
209749
209855
209966
210015
210121
210236
210283
210390
210509
210557
210662
210773
210820
210923
211036
211083
211188
211300
211349
211453
211561
211608
211711
211818
211866
211970
212084
212134
212235
212355
212403
212507
212618
212666
212772
212884
212934
213039
213157
213206
213312
213426
213474
213582
213689
213738
213844
213958
214006
214111
214229
214277
214385
214500
214549
214655
214770
214819
214925
215047
215095
215203
215328
215377
215482
215596
215644
215751
215864
215913
216016
216132
216180
216284
216392
216440
216546
216653
216702
216808
216921
216969
217072
217193
217241
217346
217455
217503
217607
217722
217770
217874
217995
218042
218147
218263
218312
218416
218529
218577
218681
218804
218853
218959
219088
219137
219241
219370
219416
219522
219643
219692
219796
219921
219967
220071
220193
220242
220349
220460
220509
220612
220731
220779
220881
221006
221054
221160
221271
221319
221423
221530
221578
221681
221794
221842
221947
222057
222106
222209
222314
222362
222465
222578
222625
222730
222847
222895
222998
223112
223160
223265
223376
223423
223529
223647
223696
223801
223921
223970
224075
224190
224239
224344
224471
224519
224622
224756
224803
224909
225034
225084
225187
225316
225363
225470
225596
225644
225752
225878
225926
226031
226145
226193
226299
226416
226465
226571
226690
226738
226843
226958
227005
227111
227227
227276
227380
227503
227551
227657
227774
227822
227929
228039
228088
228190
228310
228356
228464
228579
228625
228733
228842
228890
228993
229107
229153
229260
229375
229423
229531
229650
229700
229805
229923
229969
230075
230191
230239
230344
230465
230513
230617
230729
230775
230881
230989
231037
231140
231259
231307
231410
231532
231579
231686
231803
231851
231955
232083
232131
232236
232366
232415
232520
232643
232690
232793
232900
232950
233058
233168
233216
233322
233431
233479
233581
233687
233735
233840
233950
233997
234102
234225
234274
234376
234504
234551
234657
234780
234830
234933
235072
235120
235226
235369
235416
235523
235662
235711
235816
235948
235996
236104
236238
236286
236392
236519
236566
236674
236787
236836
236941
237064
237111
237218
237343
237391
237498
237625
237674
237777
237909
237957
238064
238205
238252
238359
238500
238549
238656
238796
238844
238951
239081
239127
239236
239368
239417
239522
239657
239704
239813
239934
239981
240088
240209
240256
240362
240490
240538
240646
240767
240816
240921
241029
241076
241181
241287
241335
241442
241543
241591
241694
241802
241849
241955
242071
242118
242223
242345
242395
242497
242616
242665
242767
242892
242939
243047
243171
243220
243326
243444
243491
243598
243723
243771
243875
244004
244052
244156
244275
244323
244430
244554
244603
244707
244838
244884
244992
245105
245154
245262
245377
245425
245532
245650
245696
245805
245917
245964
246071
246184
246231
246336
246451
246498
246604
246709
246758
246861
246971
247020
247123
247237
247284
247391
247500
247548
247655
247761
247809
247914
248030
248076
248184
248295
248343
248450
248556
248604
248707
248820
248867
248974
249083
249132
249238
249343
249393
249497
249604
249651
249754
249866
249914
250020
250134
250183
250286
250398
250445
250551
250669
250716
250823
250944
250992
251098
251214
251262
251369
251486
251535
251641
251764
251812
251916
252034
252082
252188
252300
252348
252449
252565
252612
252716
252828
252875
252980
253085
253135
253239
253347
253395
253498
253616
253662
253768
253884
253932
254036
254149
254196
254297
254412
254459
254566
254680
254728
254831
254943
254991
255094
255202
255249
255356
255471
255521
255625
255743
255792
255896
256015
256063
256170
256281
256330
256434
256552
256600
256705
256822
256869
256976
257087
257135
257240
257357
257403
257507
257622
257669
257775
257883
257933
258036
258144
258191
258296
258408
258456
258563
258675
258724
258827
258940
258988
259092
259207
259255
259362
259480
259529
259625
259749
259802
259908
260028
260075
260182
260304
260352
260456
260568
260615
260722
260830
260878
260983
261098
261145
261247
261356
261403
261508
261619
261666
261771
261886
261934
262038
262149
262197
262302
262413
262460
262566
262687
262735
262839
262956
263003
263108
263216
263264
263370
263490
263537
263641
263759
263805
263910
264018
264065
264170
264285
264333
264437
264548
264594
264699
264806
264852
264959
265073
265120
265223
265334
265381
265486
265586
265633
265739
265822
265871
265972
266053
266101
266203
266287
266335
266436
266522
266570
266673
266755
266803
266907
266984
267033
267137
267225
267274
267376
267473
267522
267623
267722
267768
267872
267969
268016
268121
268218
268267
268367
268473
268521
268622
268722
268769
268873
268975
269023
269126
269232
269280
269382
269486
269534
269637
269741
269788
269890
269996
270044
270145
270249
270297
270398
270500
270547
270650
270757
270804
270907
271016
271065
271166
271270
271318
271419
271526
271574
271676
271787
271835
271937
272047
272095
272198
272302
272348
272452
272564
272611
272717
272831
272879
272983
273092
273139
273243
273351
273398
273504
273615
273664
273767
273881
273928
274030
274138
274185
274290
274395
274444
274546
274657
274704
274807
274914
274960
275064
275169
275217
275317
275433
275481
275582
275700
275746
275851
275961
276009
276112
276228
276276
276377
276499
276547
276651
276764
276812
276915
277024
277072
277173
277290
277336
277441
277555
277602
277704
277813
277860
277962
278076
278123
278228
278340
278388
278492
278599
278647
278748
278851
278899
279003
279112
279160
279263
279368
279418
279519
279623
279673
279773
279886
279932
280036
280148
280196
280297
280404
280451
280552
280666
280712
280816
280930
280977
281082
281191
281237
281339
281448
281495
281600
281713
281761
281864
281982
282030
282132
282246
282293
282396
282518
282565
282670
282795
282843
282944
283070
283116
283220
283340
283389
283491
283622
283670
283775
283896
283943
284049
284163
284210
284313
284428
284474
284578
284690
284738
284843
284953
285001
285103
285213
285260
285362
285480
285527
285631
285756
285806
285909
286027
286074
286178
286303
286351
286456
286583
286631
286734
286852
286898
287004
287126
287175
287279
287399
287447
287549
287659
287707
287812
287929
287978
288082
288203
288251
288357
288467
288514
288620
288732
288780
288882
289000
289047
289152
289267
289315
289422
289527
289575
289678
289796
289841
289946
290064
290112
290218
290331
290379
290483
290599
290646
290752
290868
290917
291022
291138
291185
291289
291401
291446
291552
291666
291714
291820
291937
291984
292087
292201
292245
292350
292460
292507
292612
292729
292777
292881
293003
293050
293156
293273
293321
293425
293552
293599
293705
293826
293873
293981
294094
294144
294248
294361
294408
294513
294624
294671
294777
294882
294931
295034
295137
295185
295289
295399
295445
295550
295657
295703
295805
295913
295960
296064
296181
296227
296333
296450
296498
296603
296719
296765
296869
296993
297039
297144
297269
297317
297420
297549
297596
297699
297825
297872
297977
298111
298159
298262
298394
298440
298546
298661
298710
298815
298926
298975
299081
299191
299240
299346
299456
299506
299608
299724
299773
299875
300009
300057
300163
300306
300356
300459
300606
300655
300761
300903
300951
301055
301196
301243
301352
301480
301529
301634
301755
301801
301907
302031
302079
302183
302310
302357
302461
302583
302632
302739
302860
302909
303013
303135
303183
303290
303407
303453
303560
303674
303721
303825
303946
303993
304099
304221
304270
304374
304492
304540
304643
304767
304815
304920
305044
305093
305196
305324
305372
305479
305592
305640
305745
305861
305908
306011
306124
306170
306276
306380
306428
306532
306634
306682
306784
306895
306943
307044
307163
307212
307317
307430
307479
307583
307707
307755
307860
307988
308036
308142
308268
308317
308421
308555
308603
308709
308849
308898
309004
309148
309196
309305
309437
309485
309590
309733
309779
309886
310025
310073
310178
310314
310361
310470
310605
310655
310760
310906
310953
311060
311202
311252
311357
311494
311540
311648
311790
311840
311946
312093
312139
312248
312378
312427
312530
312652
312699
312803
312925
312972
313078
313198
313248
313352
313476
313524
313630
313765
313814
313921
314063
314112
314218
314359
314408
314516
314668
314716
314825
314990
315039
315148
315307
315352
315462
315622
315670
315779
315940
315988
316098
316235
316283
316389
316516
316563
316673
316791
316840
316947
317063
317109
317218
317323
317371
317481
317596
317644
317750
317872
317917
318025
318143
318190
318298
318428
318475
318581
318711
318758
318868
318993
319042
319148
319289
319337
319446
319591
319640
319748
319891
319938
320047
320188
320237
320345
320496
320543
320653
320803
320850
320958
321099
321146
321256
321392
321439
321548
321669
321717
321825
321934
321982
322088
322207
322254
322360
322480
322528
322637
322749
322798
322905
323032
323079
323187
323322
323370
323475
323613
323660
323765
323908
323955
324064
324206
324254
324359
324506
324553
324662
324805
324851
324958
325098
325145
325255
325388
325435
325542
325667
325715
325824
325953
326002
326109
326243
326290
326400
326527
326577
326684
326817
326863
326972
327103
327151
327260
327379
327428
327534
327646
327694
327804
327916
327965
328074
328193
328243
328350
328471
328519
328629
328754
328801
328909
329042
329089
329200
329330
329378
329488
329617
329664
329773
329903
329950
330060
330180
330226
330334
330445
330492
330603
330713
330762
330870
330990
331037
331147
331266
331314
331424
331546
331594
331701
331827
331875
331984
332110
332160
332268
332390
332437
332545
332673
332721
332830
332959
333008
333116
333235
333281
333391
333501
333549
333657
333772
333819
333928
334045
334093
334201
334321
334369
334476
334605
334653
334763
334896
334944
335052
335187
335235
335347
335474
335524
335632
335769
335819
335929
336071
336119
336228
336367
336414
336524
336661
336710
336818
336962
337009
337118
337259
337306
337416
337545
337593
337700
337825
337873
337983
338091
338140
338247
338345
338393
338497
338600
338649
338755
338865
338913
339020
339129
339177
339282
339401
339449
339557
339684
339733
339838
339963
340009
340119
340252
340301
340406
340546
340592
340702
340834
340882
340989
341122
341170
341277
341397
341444
341553
341661
341709
341813
341931
341979
342087
342201
342249
342356
342461
342510
342616
342731
342779
342888
343004
343053
343163
343274
343322
343430
343547
343594
343702
343820
343869
343979
344085
344133
344240
344343
344389
344500
344607
344654
344763
344875
344923
345032
345140
345188
345294
345402
345450
345558
345676
345724
345832
345946
345993
346102
346211
346259
346366
346482
346529
346634
346754
346801
346912
347018
347068
347175
347283
347332
347437
347552
347599
347707
347821
347869
347977
348082
348132
348239
348350
348397
348506
348616
348665
348772
348880
348929
349035
349144
349190
349300
349407
349456
349564
349664
349712
349818
349921
349967
350075
350176
350223
350333
350428
350475
350583
350686
350734
350843
350946
350993
351103
351198
351247
351354
351451
351500
351606
351710
351757
351864
351968
352015
352123
352220
352270
352375
352482
352529
352636
352743
352791
352897
352998
353048
353153
353265
353312
353419
353527
353575
353685
353786
353834
353940
354032
354080
354186
354266
354315
354418
354497
354545
354651
354728
354778
354886
354962
355011
355117
355196
355247
355356
355434
355482
355588
355675
355722
355829
355918
355968
356075
356161
356211
356313
356396
356447
356551
356646
356694
356797
356902
356949
357055
357151
357199
357304
357408
357456
357560
357671
357718
357825
357927
357975
358080
358184
358233
358338
358447
358495
358600
358709
358757
358865
358963
359012
359117
359224
359273
359377
359483
359530
359636
359736
359784
359891
359992
360039
360142
360251
360296
360404
360510
360558
360664
360766
360816
360921
361028
361076
361181
361289
361338
361446
361549
361598
361702
361807
361854
361959
362071
362118
362224
362337
362386
362492
362599
362648
362753
362866
362913
363020
363130
363180
363286
363393
363442
363547
363650
363697
363804
363912
363960
364070
364178
364226
364331
364439
364487
364595
364701
364750
364857
364968
365017
365121
365233
365280
365386
365489
365536
365642
365751
365799
365904
366013
366060
366167
366269
366317
366424
366521
366572
366675
366786
366833
366937
367054
367103
367209
367323
367371
367476
367589
367636
367740
367861
367909
368017
368137
368187
368292
368409
368455
368563
368688
368735
368844
368970
369018
369125
369241
369288
369395
369498
369548
369653
369763
369811
369916
370023
370070
370177
370282
370330
370437
370559
370607
370711
370846
370894
371001
371130
371179
371283
371419
371466
371574
371704
371752
371859
371979
372026
372133
372257
372305
372413
372541
372588
372695
372809
372856
372965
373078
373126
373232
373351
373399
373504
373621
373668
373775
373879
373928
374032
374144
374192
374299
374409
374456
374566
374670
374718
374824
374938
374986
375092
375213
375260
375370
375482
375531
375638
375761
375807
375915
376041
376089
376198
376319
376366
376473
376595
376642
376752
376877
376926
377033
377163
377211
377321
377445
377494
377603
377737
377785
377894
378029
378077
378187
378308
378356
378465
378573
378621
378731
378839
378887
378995
379104
379152
379258
379368
379415
379523
379646
379694
379799
379933
379982
380086
380213
380262
380372
380507
380556
380664
380805
380854
380964
381106
381154
381257
381396
381445
381553
381699
381747
381855
382004
382052
382162
382302
382350
382458
382601
382650
382760
382901
382949
383056
383186
383234
383343
383473
383521
383629
383761
383809
383921
384047
384096
384206
384329
384376
384486
384608
384656
384765
384878
384927
385036
385142
385189
385300
385410
385459
385567
385681
385729
385838
385948
385995
386103
386221
386270
386377
386499
386546
386653
386768
386815
386925
387047
387095
387203
387329
387377
387489
387608
387658
387765
387888
387936
388046
388169
388217
388328
388451
388500
388608
388731
388778
388887
389021
389071
389178
389317
389365
389474
389605
389654
389763
389897
389944
390056
390191
390241
390350
390478
390527
390637
390753
390801
390910
391027
391075
391184
391300
391347
391456
391567
391614
391724
391832
391880
391987
392111
392159
392268
392407
392456
392566
392698
392745
392853
392989
393039
393146
393285
393333
393443
393576
393624
393733
393879
393926
394037
394183
394232
394342
394481
394529
394641
394774
394823
394933
395063
395110
395221
395336
395384
395496
395611
395659
395767
395886
395933
396044
396153
396200
396310
396426
396474
396582
396705
396752
396862
396981
397030
397139
397260
397308
397419
397552
397601
397711
397851
397898
398009
398139
398187
398298
398438
398486
398597
398740
398788
398898
399040
399088
399199
399331
399380
399491
399633
399681
399791
399931
399980
400089
400214
400262
400371
400478
400525
400634
400738
400787
400896
400999
401047
401154
401257
401304
401414
401530
401580
401689
401815
401863
401970
402097
402145
402255
402399
402448
402558
402704
402752
402864
403002
403049
403158
403306
403353
403467
403620
403666
403778
403925
403975
404085
404232
404279
404392
404547
404595
404706
404859
404906
405019
405172
405220
405329
405491
405538
405652
405801
405849
405961
406103
406150
406260
406400
406448
406559
406683
406731
406841
406963
407011
407119
407252
407301
407412
407535
407584
407693
407818
407866
407976
408121
408171
408280
408420
408467
408579
408703
408753
408862
409002
409048
409160
409295
409343
409455
409586
409634
409745
409889
409938
410048
410202
410250
410363
410507
410557
410669
410810
410857
410970
411121
411169
411280
411433
411480
411594
411738
411786
411898
412049
412096
412210
412351
412398
412510
412633
412681
412793
412907
412955
413066
413185
413231
413345
413459
413508
413618
413738
413785
413893
414030
414079
414192
414335
414383
414493
414637
414685
414797
414945
414993
415103
415247
415295
415407
415546
415594
415703
415852
415900
416010
416150
416198
416310
416438
416487
416599
416738
416786
416898
417043
417092
417203
417345
417393
417505
417640
417689
417801
417940
417989
418101
418228
418278
418391
418521
418569
418680
418822
418870
418984
419119
419168
419277
419400
419447
419560
419683
419732
419843
419962
420009
420121
420232
420280
420390
420518
420566
420675
420810
420858
420971
421096
421144
421254
421381
421429
421541
421677
421726
421838
421981
422029
422143
422275
422324
422433
422559
422605
422718
422848
422898
423009
423142
423190
423302
423433
423482
423592
423722
423771
423882
424021
424069
424181
424315
424363
424475
424597
424644
424757
424883
424930
425040
425165
425213
425327
425447
425497
425605
425728
425776
425887
426020
426070
426180
426321
426369
426481
426619
426668
426777
426920
426967
427079
427215
427264
427374
427502
427549
427661
427785
427832
427943
428059
428108
428218
428324
428371
428482
428588
428636
428745
428859
428906
429015
429133
429181
429294
429402
429451
429561
429681
429729
429840
429970
430018
430130
430254
430303
430413
430531
430584
430694
430828
430877
430986
431116
431163
431276
431395
431444
431554
431672
431720
431830
431944
431991
432101
432208
432257
432364
432462
432509
432615
432719
432765
432875
432984
433033
433142
433250
433298
433406
433515
433562
433673
433797
433846
433956
434088
434135
434248
434374
434422
434534
434673
434720
434833
434981
435030
435142
435291
435337
435450
435594
435643
435753
435901
435948
436060
436204
436251
436362
436497
436544
436657
436788
436836
436947
437073
437119
437232
437344
437391
437501
437610
437658
437767
437880
437927
438036
438157
438206
438316
438434
438482
438592
438709
438757
438869
438991
439040
439149
439268
439315
439428
439545
439593
439701
439833
439882
439993
440128
440176
440287
440422
440470
440581
440726
440773
440884
441039
441086
441200
441341
441391
441502
441646
441693
441805
441947
441995
442106
442251
442297
442410
442541
442589
442701
442840
442887
443000
443142
443191
443303
443444
443491
443604
443738
443787
443898
444036
444082
444195
444325
444373
444485
444610
444658
444769
444902
444950
445063
445208
445256
445368
445510
445559
445671
445812
445859
445972
446123
446173
446285
446437
446483
446596
446726
446775
446885
447010
447057
447170
447299
447347
447457
447591
447638
447751
447875
447923
448036
448176
448223
448335
448483
448531
448645
448798
448846
448959
449105
449154
449265
449418
449464
449578
449720
449769
449879
450014
450061
450176
450317
450365
450476
450627
450674
450790
450933
450982
451092
451228
451275
451389
451536
451584
451696
451844
451892
452005
452144
452193
452305
452452
452500
452613
452764
452811
452923
453055
453102
453216
453335
453382
453492
453615
453661
453772
453889
453939
454049
454170
454218
454328
454466
454514
454625
454777
454824
454938
455089
455138
455250
455403
455451
455564
455721
455769
455880
456024
456072
456186
456318
456365
456477
456622
456670
456784
456929
456978
457088
457233
457279
457392
457545
457594
457707
457858
457907
458019
458165
458212
458326
458467
458515
458628
458780
458828
458941
459096
459144
459257
459408
459455
459570
459714
459762
459875
460031
460078
460188
460350
460396
460511
460659
460708
460820
460962
461008
461123
461275
461323
461437
461582
461629
461744
461886
461934
462046
462203
462251
462366
462523
462571
462685
462833
462881
462994
463153
463199
463314
463474
463522
463636
463789
463837
463952
464116
464163
464277
464439
464488
464600
464760
464807
464923
465084
465133
465246
465410
465459
465573
465733
465779
465895
466051
466100
466213
466378
466426
466541
466702
466749
466863
467017
467065
467178
467338
467385
467500
467665
467712
467825
467979
468027
468142
468300
468347
468461
468623
468672
468786
468945
468992
469108
469260
469308
469421
469566
469615
469728
469859
469906
470019
470120
470167
470279
470380
470428
470538
470650
470699
470808
470924
470972
471082
471225
471274
471385
471513
471560
471673
471797
471845
471957
472100
472147
472262
472384
472433
472547
472675
472721
472836
472970
473019
473132
473266
473313
473427
473540
473588
473703
473816
473864
473977
474084
474130
474244
474358
474405
474517
474631
474678
474790
474896
474943
475057
475168
475217
475328
475442
475490
475602
475708
475755
475869
475987
476035
476146
476268
476314
476427
476539
476586
476699
476816
476864
476976
477094
477139
477252
477359
477408
477518
477639
477686
477798
477918
477965
478079
478188
478236
478347
478468
478515
478628
478744
478793
478904
479011
479059
479171
479284
479331
479444
479556
479604
479715
479822
479870
479981
480094
480142
480254
480370
480418
480529
480640
480687
480798
480906
480955
481066
481181
481227
481338
481450
481495
481607
481712
481760
481870
481983
482030
482140
482254
482301
482413
482521
482569
482676
482796
482843
482952
483066
483113
483224
483331
483379
483487
483601
483649
483759
483872
483919
484032
484138
484187
484296
484414
484461
484571
484682
484730
484841
484946
484994
485102
485215
485263
485373
485486
485534
485645
485748
485798
485907
486021
486067
486178
486293
486341
486451
486558
486607
486715
486818
486866
486976
487082
487130
487241
487349
487397
487505
487606
487652
487761
487871
487918
488027
488144
488193
488301
488411
488458
488568
488678
488726
488837
488951
488999
489109
489223
489270
489383
489488
489536
489645
489762
489810
489920
490040
490088
490200
490313
490363
490473
490597
490643
490755
490879
490927
491038
491156
491204
491313
491424
491472
491584
491696
491745
491856
491968
492016
492125
492231
492280
492391
492503
492552
492661
492779
492826
492937
493044
493092
493204
493316
493365
493475
493588
493635
493746
493848
493896
494008
494116
494163
494272
494383
494430
494541
494641
494689
494800
494902
494950
495060
495172
495219
495330
495435
495484
495595
495696
495745
495853
495964
496012
496123
496231
496280
496390
496500
496548
496656
496771
496817
496926
497037
497086
497197
497303
497350
497457
497572
497619
497729
497842
497890
497999
498110
498156
498264
498366
498413
498523
498631
498679
498790
498899
498947
499056
499160
499207
499317
499428
499475
499584
499700
499748
499856
499960
500006
500115
500226
500274
500383
500498
500546
500655
500761
500808
500918
501028
501076
501183
501304
501351
501460
501571
501618
501729
501834
501882
501990
502102
502149
502257
502374
502421
502529
502638
502686
502793
502910
502958
503066
503185
503233
503342
503456
503505
503614
503728
503775
503885
504005
504053
504161
504278
504325
504435
504544
504591
504701
504814
504864
504974
505093
505142
505251
505360
505409
505518
505632
505681
505791
505897
505945
506052
506151
506198
506306
506412
506461
506568
506682
506730
506838
506945
506991
507099
507212
507261
507367
507486
507534
507641
507751
507799
507910
508013
508061
508168
508286
508333
508440
508553
508600
508710
508814
508862
508970
509077
509124
509231
509341
509389
509498
509607
509656
509765
509868
509916
510024
510135
510182
510292
510405
510455
510563
510671
510720
510827
510940
510989
511099
511213
511262
511371
511479
511526
511634
511737
511785
511893
512001
512049
512156
512264
512313
512420
512523
512571
512680
512790
512840
512946
513066
513114
513223
513331
513380
513489
513601
513649
513757
513876
513923
514034
514149
514197
514309
514419
514467
514576
514695
514743
514853
514969
515018
515126
515234
515283
515391
515508
515555
515664
515782
515831
515939
516052
516099
516209
516324
516372
516481
516599
516648
516756
516869
516915
517025
517140
517188
517298
517412
517460
517568
517675
517720
517831
517940
517988
518097
518209
518257
518366
518471
518516
518625
518732
518780
518890
518999
519047
519156
519264
519311
519421
519527
519575
519685
519800
519848
519955
520067
520114
520224
520334
520383
520491
520611
520659
520766
520885
520933
521044
521153
521203
521312
521433
521479
521591
521709
521757
521868
521979
522026
522134
522253
522299
522411
522527
522576
522684
522803
522851
522959
523074
523122
523231
523351
523400
523509
523633
523679
523789
523902
523949
524057
524178
524225
524333
524450
524497
524607
524711
524761
524869
524966
525015
525122
525227
525273
525381
525490
525538
525646
525755
525804
525911
526025
526072
526180
526301
526349
526457
526577
526624
526733
526846
526893
527000
527124
527173
527281
527403
527451
527560
527672
527720
527830
527950
527998
528107
528227
528274
528385
528494
528543
528651
528762
528810
528918
529034
529081
529191
529303
529351
529459
529565
529613
529721
529836
529883
529991
530107
530156
530264
530377
530424
530532
530648
530697
530809
530927
530976
531083
531199
531246
531356
531462
531510
531619
531735
531783
531890
532005
532051
532161
532262
532310
532419
532526
532574
532682
532795
532842
532952
533058
533108
533217
533324
533372
533480
533596
533643
533752
533869
533918
534027
534136
534184
534289
534405
534452
534562
534672
534722
534830
534937
534984
535092
535201
535248
535360
535469
535518
535626
535742
535790
535900
536007
536054
536163
536282
536331
536440
536556
536603
536711
536818
536866
536975
537087
537135
537243
537357
537403
537514
537616
537664
537772
537880
537928
538036
538149
538196
538306
538417
538465
538574
538683
538732
538839
538958
539006
539115
539232
539280
539389
539500
539548
539654
539772
539819
539927
540041
540090
540200
540306
540353
540460
540567
540614
540724
540832
540881
540988
541100
541148
541256
541362
541410
541520
541635
541684
541792
541912
541960
542068
542178
542226
542336
542452
542501
542609
542727
542773
542884
542992
543040
543149
543258
543307
543414
543528
543575
543686
543798
543846
543957
544062
544111
544219
544337
544384
544495
544612
544659
544766
544880
544928
545035
545155
545201
545311
545432
545481
545590
545709
545757
545866
545978
546026
546135
546258
546305
546414
546540
546587
546698
546811
546860
546968
547090
547137
547247
547367
547415
547526
547638
547688
547796
547914
547961
548072
548190
548238
548345
548464
548512
548619
548730
548775
548885
548999
549048
549156
549272
549320
549428
549537
549585
549695
549811
549860
549968
550089
550137
550247
550359
550408
550517
550629
550678
550786
550901
550948
551058
551166
551214
551324
551424
551473
551581
551691
551738
551846
551957
552005
552115
552219
552267
552374
552484
552531
552640
552752
552799
552909
553020
553067
553175
553279
553326
553436
553543
553591
553699
553808
553857
553961
554065
554112
554221
554328
554376
554485
554593
554641
554748
554855
554903
555011
555112
555159
555269
555378
555427
555535
555647
555695
555803
555908
555956
556064
556176
556225
556333
556448
556496
556603
556710
556758
556867
556978
557028
557133
557248
557296
557403
557512
557559
557668
557770
557819
557924
558038
558085
558193
558302
558350
558460
558565
558613
558720
558827
558874
558982
559096
559144
559254
559370
559419
559528
559643
559690
559798
559924
559972
560081
560201
560248
560357
560468
560514
560624
560739
560788
560895
561015
561063
561170
561279
561327
561436
561547
561596
561703
561819
561867
561976
562094
562142
562251
562362
562411
562518
562637
562684
562794
562914
562962
563071
563190
563238
563342
563460
563507
563617
563737
563787
563895
564022
564068
564178
564298
564346
564456
564582
564630
564738
564867
564915
565025
565155
565203
565311
565437
565484
565594
565726
565774
565883
566012
566058
566169
566285
566333
566443
566561
566609
566717
566840
566887
566997
567123
567172
567281
567400
567447
567556
567684
567732
567843
567974
568022
568130
568254
568301
568412
568543
568591
568699
568840
568887
568998
569136
569186
569295
569434
569480
569591
569736
569783
569894
570027
570073
570186
570309
570357
570466
570586
570633
570743
570849
570897
571008
571120
571169
571276
571402
571449
571559
571682
571731
571838
571980
572028
572139
572270
572318
572426
572563
572611
572719
572853
572901
573012
573136
573183
573291
573424
573472
573582
573717
573764
573870
573993
574041
574152
574279
574328
574437
574569
574616
574725
574850
574899
575009
575135
575183
575292
575427
575475
575587
575722
575769
575878
576006
576054
576166
576297
576347
576455
576591
576637
576749
576871
576920
577031
577159
577205
577316
577441
577489
577598
577715
577763
577872
577989
578036
578147
578268
578317
578426
578546
578593
578706
578809
578857
578969
579066
579116
579222
579335
579382
579490
579602
579650
579761
579873
579921
580030
580140
580188
580298
580418
580465
580575
580701
580749
580856
580981
581029
581139
581250
581298
581407
581528
581576
581685
581805
581853
581965
582076
582124
582231
582340
582387
582498
582610
582658
582769
582882
582930
583040
583151
583198
583307
583425
583474
583583
583706
583754
583861
583981
584029
584140
584252
584302
584409
584532
584579
584690
584811
584860
584969
585088
585134
585243
585354
585402
585511
585625
585674
585783
585897
585945
586052
586160
586207
586317
586430
586479
586587
586705
586753
586862
586973
587020
587130
587243
587293
587400
587520
587567
587677
587795
587843
587952
588066
588114
588222
588344
588391
588500
588620
588669
588778
588889
588937
589047
589160
589207
589317
589431
589479
589587
589702
589748
589858
589966
590014
590124
590241
590287
590396
590516
590563
590673
590786
590835
590943
591056
591103
591212
591330
591378
591488
591604
591652
591761
591872
591919
592027
592145
592192
592302
592419
592468
592575
592690
592737
592847
592967
593016
593121
593246
593293
593400
593516
593563
593673
593797
593845
593954
594076
594123
594234
594346
594394
594503
594624
594672
594780
594902
594947
595059
595171
595219
595328
595450
595498
595607
595733
595780
595891
596009
596057
596166
596281
596327
596438
596556
596604
596712
596825
596872
596980
597087
597134
597244
597353
597402
597509
597621
597668
597776
597884
597931
598040
598152
598201
598309
598427
598474
598582
598694
598742
598852
598970
599018
599127
599248
599295
599404
599518
599566
599675
599789
599837
599946
600060
600106
600215
600324
600371
600481
600584
600631
600740
600849
600895
601004
601115
601163
601272
601381
601429
601535
601655
601702
601813
601931
601979
602087
602201
602248
602356
602477
602525
602634
602752
602801
602908
603015
603063
603170
603263
603310
603419
603503
603551
603659
603737
603785
603893
603972
604022
604128
604214
604263
604369
604463
604511
604618
604711
604761
604867
604975
605023
605128
605243
605291
605400
605505
605553
605659
605774
605822
605928
606041
606089
606197
606306
606355
606462
606565
606612
606719
606826
606873
606982
607088
607134
607244
607344
607392
607498
607607
607655
607763
607873
607922
608031
608134
608183
608290
608396
608443
608551
608661
608709
608817
608927
608976
609083
609187
609234
609343
609451
609499
609607
609717
609766
609872
609978
610026
610133
610239
610287
610394
610504
610553
610659
610770
610817
610925
611028
611076
611183
611291
611341
611448
611559
611606
611713
611816
611862
611969
612068
612116
612223
612333
612381
612487
612596
612643
612751
612854
612904
613012
613118
613165
613269
613381
613428
613536
613645
613692
613800
613899
613948
614053
614162
614209
614317
614422
614470
614579
614678
614726
614832
614937
614985
615092
615202
615249
615359
615465
615514
615621
615726
615774
615879
615991
616038
616146
616255
616304
616410
616511
616558
616663
616767
616814
616922
617024
617072
617182
617280
617329
617435
617532
617581
617684
617793
617839
617946
618057
618106
618212
618319
618367
618473
618581
618628
618736
618850
618899
619007
619125
619172
619279
619390
619437
619545
619659
619708
619814
619931
619979
620088
620197
620244
620352
620459
620508
620613
620729
620775
620883
620993
621041
621149
621257
621305
621411
621525
621572
621681
621796
621843
621952
622060
622109
622213
622326
622373
622482
622595
622642
622752
622866
622914
623020
623126
623172
623279
623390
623438
623547
623660
623708
623815
623924
623971
624078
624187
624234
624342
624455
624503
624610
624714
624760
624867
624974
625021
625130
625240
625289
625394
625506
625553
625661
625766
625813
625922
626035
626084
626190
626308
626354
626464
626574
626621
626731
626838
626886
626993
627110
627156
627265
627381
627429
627537
627649
627697
627803
627923
627969
628078
628196
628245
628352
628465
628513
628619
628731
628777
628886
629000
629048
629156
629274
629322
629431
629539
629587
629695
629812
629860
629966
630088
630135
630244
630359
630406
630516
630626
630674
630782
630900
630946
631056
631174
631221
631328
631448
631495
631601
631724
631772
631881
632010
632059
632167
632295
632342
632452
632574
632622
632730
632864
632910
633019
633150
633199
633309
633430
633477
633584
633714
633761
633870
633997
634046
634153
634275
634321
634430
634551
634599
634708
634831
634878
634985
635102
635149
635259
635365
635414
635522
635639
635687
635796
635913
635962
636069
636183
636231
636338
636461
636508
636620
636739
636787
636896
637009
637056
637162
637281
637326
637434
637557
637605
637713
637831
637879
637987
638100
638148
638256
638374
638422
638531
638651
638697
638807
638919
638966
639076
639191
639239
639347
639458
639504
639613
639717
639764
639872
639983
640030
640137
640252
640299
640408
640518
640566
640675
640790
640838
640945
641068
641114
641225
641344
641394
641501
641617
641664
641771
641894
641941
642051
642173
642220
642327
642438
642485
642593
642710
642757
642865
642983
643030
643138
643249
643295
643405
643514
643562
643667
643787
643834
643940
644056
644102
644212
644320
644369
644475
644595
644642
644750
644868
644916
645027
645135
645184
645290
645406
645452
645561
645678
645726
645836
645948
645996
646104
646213
646259
646368
646483
646530
646640
646754
646802
646909
647020
647066
647175
647289
647338
647447
647568
647616
647723
647843
647890
648000
648114
648164
648271
648391
648438
648547
648656
648704
648814
648915
648964
649072
649182
649229
649338
649451
649497
649606
649715
649764
649869
649983
650031
650138
650255
650303
650412
650531
650579
650686
650800
650846
650954
651072
651119
651227
651346
651393
651502
651612
651658
651767
651882
651931
652039
652161
652209
652318
652433
652481
652591
652701
652750
652857
652976
653022
653132
653249
653295
653405
653517
653565
653671
653785
653831
653941
654056
654104
654212
654328
654377
654483
654594
654640
654749
654865
654913
655020
655141
655188
655296
655413
655461
655569
655682
655730
655836
655957
656003
656113
656234
656281
656390
656504
656551
656658
656770
656817
656926
657039
657087
657196
657307
657355
657462
657571
657617
657727
657842
657890
657995
658116
658164
658270
658388
658434
658544
658657
658705
658813
658933
658982
659089
659210
659258
659368
659486
659534
659641
659769
659816
659926
660049
660097
660206
660326
660374
660482
660595
660642
660752
660864
660913
661020
661130
661177
661285
661387
661434
661542
661652
661700
661806
661922
661969
662078
662186
662234
662343
662458
662508
662614
662738
662785
662895
663014
663060
663168
663285
663333
663439
663563
663610
663718
663837
663886
663992
664111
664158
664268
664387
664435
664545
664653
664701
664808
664924
664970
665079
665190
665237
665346
665447
665496
665602
665710
665757
665865
665973
666021
666130
666237
666285
666392
666495
666543
666650
666760
666808
666917
667034
667083
667191
667304
667351
667461
667568
667615
667725
667840
667889
667997
668120
668166
668277
668389
668436
668544
668658
668706
668812
668934
668980
669089
669203
669253
669361
669472
669519
669626
669742
669790
669899
670016
670066
670173
670284
670331
670440
670552
670599
670708
670825
670874
670981
671093
671139
671246
671361
671409
671518
671640
671687
671795
671915
671961
672071
672184
672232
672338
672465
672512
672621
672742
672790
672899
673015
673064
673173
673297
673344
673456
673577
673626
673734
673852
673899
674007
674129
674176
674286
674408
674457
674565
674690
674737
674847
674962
675010
675119
675238
675285
675394
675516
675563
675674
675793
675843
675954
676068
676114
676226
676343
676391
676501
676623
676671
676779
676900
676948
677058
677171
677219
677328
677449
677497
677606
677727
677775
677886
677997
678045
678155
678255
678302
678412
678521
678567
678677
678787
678835
678942
679049
679096
679205
679305
679352
679461
679572
679620
679728
679843
679889
679999
680110
680158
680269
680385
680433
680540
680664
680711
680822
680937
680985
681093
681205
681253
681363
681478
681526
681636
681755
681804
681910
682027
682074
682183
682297
682346
682457
682574
682622
682730
682848
682894
683004
683114
683163
683270
683391
683439
683548
683667
683716
683825
683938
683987
684096
684221
684268
684377
684503
684551
684660
684779
684827
684936
685060
685108
685218
685343
685392
685501
685622
685669
685779
685906
685954
686064
686192
686240
686349
686466
686514
686625
686752
686800
686909
687039
687085
687195
687318
687367
687475
687595
687641
687752
687881
687929
688039
688167
688215
688323
688448
688497
688609
688730
688779
688887
689014
689061
689172
689301
689349
689458
689575
689623
689733
689852
689900
690011
690132
690179
690287
690403
690449
690561
690677
690725
690835
690957
691005
691114
691236
691283
691395
691509
691558
691666
691796
691843
691954
692088
692137
692245
692368
692416
692527
692648
692696
692807
692924
692972
693081
693190
693237
693348
693450
693498
693608
693721
693769
693877
693996
694042
694154
694267
694317
694426
694552
694600
694710
694838
694885
694996
695115
695163
695271
695398
695445
695555
695683
695732
695841
695963
696009
696120
696233
696281
696391
696514
696562
696671
696786
696832
696941
697049
697098
697207
697323
697371
697479
697595
697643
697753
697860
697908
698016
698132
698180
698288
698402
698450
698560
698668
698716
698825
698939
698987
699096
699210
699258
699369
699475
699523
699632
699736
699783
699892
700005
700052
700163
700271
700321
700429
700534
700580
700690
700800
700849
700959
701068
701117
701225
701330
701376
701485
701592
701639
701750
701859
701908
702015
702125
702174
702282
702384
702432
702542
702655
702703
702810
702931
702978
703088
703204
703251
703361
703474
703521
703629
703749
703796
703906
704023
704073
704182
704291
704338
704447
704560
704608
704718
704835
704884
704993
705107
705155
705266
705372
705420
705531
705645
705693
705801
705920
705967
706077
706186
706235
706343
706458
706505
706612
706728
706777
706886
706999
707047
707157
707266
707314
707423
707543
707590
707701
707818
707869
707978
708095
708142
708252
708363
708411
708521
708638
708685
708793
708906
708954
709066
709169
709217
709326
709439
709487
709595
709712
709759
709870
709980
710029
710137
710261
710309
710417
710544
710593
710705
710825
710873
710981
711103
711151
711263
711382
711430
711538
711656
711704
711811
711937
711985
712095
712212
712261
712369
712484
712531
712640
712753
712801
712912
713034
713081
713190
713307
713354
713465
713571
713619
713729
713844
713893
714000
714119
714167
714277
714390
714439
714547
714664
714711
714821
714937
714985
715094
715202
715250
715360
715471
715517
715627
715741
715788
715899
716007
716055
716163
716268
716316
716426
716538
716586
716695
716809
716857
716965
717078
717125
717236
717347
717395
717505
717619
717668
717775
717886
717933
718044
718148
718197
718305
718421
718469
718578
718691
718739
718849
718951
719000
719110
719217
719266
719372
719483
719531
719642
719752
719801
719910
720022
720070
720178
720299
720346
720457
720577
720625
720733
720851
720898
721008
721131
721179
721289
721405
721454
721561
721672
721718
721827
721942
721990
722099
722218
722266
722376
722488
722535
722647
722768
722816
722924
723048
723095
723207
723323
723371
723478
723596
723643
723751
723871
723919
724029
724144
724193
724303
724409
724457
724566
724679
724726
724836
724949
724998
725107
725213
725261
725369
725481
725528
725637
725753
725801
725910
726020
726067
726178
726286
726334
726444
726556
726604
726713
726828
726876
726986
727090
727138
727246
727359
727407
727516
727633
727681
727789
727900
727949
728057
728166
728214
728323
728438
728487
728596
728714
728763
728871
728985
729032
729141
729259
729307
729417
729536
729584
729691
729805
729851
729961
730075
730123
730232
730355
730403
730510
730633
730681
730792
730906
730954
731062
731187
731233
731345
731466
731514
731623
731745
731791
731899
732016
732063
732173
732278
732327
732435
732524
732571
732677
732754
732804
732911
732987
733034
733141
733211
733259
733366
733437
733484
733591
733661
733711
733819
733897
733947
734053
734138
734187
734292
734378
734425
734534
734612
734662
734768
734856
734905
735009
735109
735157
735264
735355
735403
735512
735597
735643
735751
735844
735892
736001
736092
736142
736247
736328
736376
736481
736559
736607
736714
736788
736835
736941
737018
737067
737173
737255
737306
737411
737495
737544
737648
737734
737782
737887
737984
738031
738137
738236
738286
738390
738489
738537
738643
738744
738791
738900
739006
739054
739162
739271
739319
739424
739528
739576
739683
739785
739833
739941
740046
740094
740202
740308
740355
740461
740560
740607
740713
740819
740867
740973
741084
741133
741238
741342
741387
741495
741594
741641
741747
741855
741904
742010
742121
742168
742276
742378
742426
742533
742639
742686
742792
742905
742953
743058
743169
743216
743325
743427
743475
743581
743692
743739
743844
743959
744006
744114
744221
744269
744376
744489
744538
744643
744755
744801
744909
745007
745056
745161
745265
745312
745417
745522
745569
745675
745783
745832
745941
746039
746088
746193
746301
746349
746455
746560
746607
746715
746813
746863
746968
747069
747117
747222
747329
747376
747483
747583
747631
747739
747838
747886
747990
748096
748143
748251
748351
748399
748505
748602
748651
748755
748859
748907
749012
749118
749165
749273
749376
749424
749532
749633
749681
749783
749895
749942
750048
750162
750209
750316
750430
750477
750583
750695
750742
750850
750965
751012
751120
751230
751278
751384
751494
751540
751649
751762
751810
751918
752027
752074
752181
752287
752333
752442
752551
752599
752708
752816
752863
752969
753074
753120
753227
753338
753385
753495
753606
753655
753762
753869
753916
754023
754134
754180
754289
754401
754450
754557
754666
754713
754822
754925
754973
755080
755190
755238
755344
755459
755506
755614
755718
755766
755874
755985
756033
756139
756256
756302
756411
756517
756564
756672
756783
756832
756937
757053
757099
757208
757314
757361
757469
757575
757624
757729
757841
757888
757996
758106
758154
758262
758366
758413
758518
758633
758680
758787
758901
758948
759057
759165
759213
759318
759426
759472
759578
759686
759733
759840
759947
759996
760102
760200
760246
760349
760448
760495
760602
760707
760755
760861
760971
761020
761126
761229
761277
761383
761484
761530
761637
761743
761792
761898
762003
762051
762156
762255
762302
762409
762512
762560
762667
762780
762827
762930
763037
763084
763192
763296
763343
763450
763558
763606
763713
763819
763866
763973
764074
764121
764228
764338
764387
764491
764608
764654
764762
764870
764917
765025
765136
765184
765290
765402
765449
765556
765657
765704
765811
765908
765956
766062
766165
766213
766320
766428
766475
766581
766686
766734
766841
766951
766998
767101
767218
767265
767372
767487
767535
767642
767747
767794
767899
768010
768056
768164
768269
768317
768424
768526
768576
768681
768779
768826
768930
769034
769080
769186
769289
769338
769444
769543
769590
769693
769794
769841
769948
770053
770101
770208
770318
770366
770473
770580
770626
770732
770845
770892
771000
771115
771163
771269
771376
771423
771530
771632
771678
771786
771892
771940
772046
772151
772198
772304
772405
772451
772557
772661
772708
772815
772923
772973
773075
773179
773225
773331
773417
773465
773570
773649
773696
773802
773887
773937
774040
774133
774181
774286
774378
774425
774530
774625
774672
774780
774867
774916
775021
775109
775156
775259
775338
775386
775488
775571
775617
775721
775800
775846
775952
776029
776077
776182
776266
776315
776419
776512
776560
776663
776754
776802
776908
777002
777050
777156
777254
777302
777406
777504
777551
777657
777747
777793
777897
777993
778040
778147
778244
778293
778396
778496
778543
778647
778740
778788
778894
778988
779036
779142
779238
779287
779392
779485
779532
779633
779734
779780
779886
779988
780035
780142
780242
780290
780393
780491
780538
780642
780745
780792
780899
781002
781050
781156
781254
781303
781407
781507
781554
781659
781764
781810
781917
782017
782066
782170
782268
782315
782419
782522
782569
782675
782776
782825
782931
783032
783080
783186
783285
783333
783438
783547
783594
783702
783813
783862
783968
784073
784120
784226
784332
784378
784486
784595
784643
784751
784862
784910
785015
785123
785170
785277
785385
785432
785539
785647
785695
785801
785904
785951
786058
786164
786211
786319
786426
786474
786579
786684
786733
786837
786938
786984
787091
787196
787244
787348
787460
787508
787614
787716
787762
787869
787975
788022
788128
788239
788286
788392
788507
788554
788663
788769
788817
788925
789038
789086
789188
789306
789352
789459
789561
789609
789716
789824
789872
789976
790083
790130
790235
790331
790379
790485
790584
790633
790737
790839
790887
790990
791096
791142
791250
791342
791391
791497
791598
791646
791749
791854
791901
792006
792099
792146
792253
792350
792398
792503
792604
792653
792757
792851
792899
793004
793107
793154
793260
793362
793410
793515
793620
793667
793772
793882
793928
794034
794148
794195
794301
794417
794465
794571
794682
794729
794836
794953
795002
795106
795228
795275
795381
795497
795543
795652
795769
795817
795923
796036
796084
796190
796302
796350
796457
796565
796614
796718
796821
796868
796973
797079
797125
797232
797337
797384
797492
