1717
1781
1873
1943
2000
2090
2163
2221
2310
2391
2450
2547
2625
2684
2781
2859
2917
3012
3095
3155
3251
3335
3395
3486
3576
3638
3731
3819
3877
3973
4052
4115
4211
4295
4354
4449
4535
4590
4683
4773
4831
4922
5019
5072
5165
5256
5314
5410
5499
5557
5653
5734
5795
5890
5970
6028
6125
6200
6262
6363
6440
6499
6592
6675
6734
6827
6902
6967
7062
7158
7211
7305
7401
7455
7549
7643
7700
7794
7887
7942
8036
8118
8177
8272
8346
8406
8500
8576
8635
8730
8812
8867
8962
9044
9100
9195
9280
9338
9429
9517
9576
9670
9749
9813
9917
9994
10048
10147
10222
10282
10378
10456
10517
10609
10691
10752
10843
10930
10986
11080
11161
11219
11314
11388
11450
11547
11624
11681
11772
11856
11912
12007
12081
12141
12232
12312
12369
12462
12541
12597
12693
12761
12822
12918
12987
13044
13139
13210
13267
13362
13437
13496
13584
13678
13729
13826
13902
13956
14053
14132
14190
14284
14370
14428
14527
14609
14668
14763
14846
14902
14994
15071
15130
15227
15308
15365
15463
15543
15602
15699
15783
15843
15940
16026
16083
16179
16267
16325
16425
16512
16571
16664
16765
16820
16914
17013
17073
17169
17263
17323
17420
17512
17572
17665
17761
17818
17913
18005
18066
18163
18252
18313
18406
18495
18556
18648
18737
18795
18892
18973
19036
19132
19219
19281
19375
19468
19528
19621
19711
19772
19871
19963
20021
20117
20211
20271
20366
20464
20523
20615
20717
20772
20871
20964
21022
21118
21211
21271
21368
21462
21520
21616
21707
21766
21862
21951
22012
22110
22198
22262
22355
22452
22513
22607
22707
22766
22860
22958
23016
23114
23204
23268
23360
23459
23519
23615
23702
23770
23858
23947
24019
24112
24200
24267
24359
24457
24515
24613
24708
24763
24857
24921
24974
25069
25193
25256
25352
25442
25514
25606
25693
25760
25849
25931
26013
26109
26212
26266
26353
26460
26518
26617
26705
26762
26859
26950
27006
27104
27195
27254
27348
27438
27499
27593
27689
27747
27841
27932
27990
28086
28177
28238
28335
28421
28488
28580
28679
28737
28831
28927
28989
29085
29181
29241
29337
29430
29490
29587
29678
29738
29834
29926
29986
30084
30175
30236
30335
30423
30480
30573
30664
30722
30818
30901
30965
31063
31150
31210
31305
31397
31453
31550
31638
31698
31792
31867
31941
32042
32123
32184
32284
32372
32426
32520
32608
32670
32765
32859
32916
33011
33105
33165
33261
33354
33414
33508
33601
33659
33754
33848
33904
34003
34090
34149
34243
34337
34395
34486
34577
34639
34733
34825
34883
34981
35068
35125
35219
35314
35370
35467
35556
35618
35711
35804
35865
35962
36051
36110
36207
36296
36354
36452
36543
36600
36693
36789
36848
36940
37036
37096
37201
37284
37345
37443
37535
37595
37691
37781
37842
37940
38028
38084
38184
38271
38329
38428
38514
38575
38675
38758
38820
38918
39003
39064
39160
39246
39309
39401
39499
39557
39653
39753
39812
39907
40003
40064
40162
40260
40316
40412
40509
40569
40662
40766
40822
40914
41016
41074
41170
41267
41325
41421
41515
41574
41667
41762
41822
41915
42014
42069
42166
42258
42318
42415
42510
42572
42669
42765
42823
42916
43015
43073
43173
43268
43326
43425
43519
43580
43676
43774
43833
43926
44028
44084
44178
44274
44333
44430
44523
44580
44677
44769
44828
44924
45016
45074
45171
45261
45319
45414
45508
45568
45660
45756
45813
45910
46006
46061
46160
46251
46310
46410
46503
46563
46659
46754
46811
46905
46997
47056
47153
47244
47303
47401
47494
47552
47643
47739
47799
47894
47988
48042
48143
48227
48285
48384
48471
48532
48625
48724
48782
48876
48970
49033
49125
49223
49283
49379
49472
49532
49628
49724
49781
49880
49973
50030
50122
50220
50279
50375
50466
50527
50621
50717
50775
50873
50973
51029
51127
51228
51286
51382
51481
51542
51635
51736
51795
51893
51991
52049
52145
52244
52304
52399
52501
52556
52654
52744
52805
52904
52995
53052
53148
53245
53301
53399
53495
53552
53649
53744
53804
53902
53994
54056
54148
54248
54309
54404
54499
54561
54655
54761
54815
54916
55013
55070
55169
55267
55325
55420
55518
55575
55670
55765
55827
55924
56027
56082
56210
56279
56338
56431
56529
56588
56685
56778
56840
56935
57033
57093
57191
57287
57344
57438
57532
57592
57692
57782
57840
57937
58031
58087
58183
58270
58334
58428
58524
58581
58680
58775
58832
58935
59018
59080
59175
59269
59327
59422
59519
59578
59672
59774
59833
59930
60027
60093
60188
60290
60349
60444
60541
60600
60698
60794
60852
60945
61045
61107
61200
61291
61355
61452
61545
61600
61696
61786
61849
61950
62041
62101
62196
62291
62352
62448
62544
62602
62697
62791
62852
62950
63043
63103
63194
63298
63355
63451
63543
63605
63703
63792
63852
63952
64037
64095
64191
64282
64338
64434
64527
64583
64678
64771
64829
64925
65016
65076
65174
65266
65324
65417
65517
65574
65671
65771
65828
65922
66018
66082
66177
66273
66332
66428
66523
66583
66684
66773
66836
66931
67022
67083
67178
67267
67327
67422
67518
67574
67671
67759
67822
67919
68012
68069
68168
68253
68315
68410
68502
68560
68654
68748
68808
68907
68999
69059
69154
69249
69307
69401
69497
69554
69650
69750
69806
69901
69995
70058
70152
70250
70308
70406
70500
70555
70650
70745
70806
70902
70998
71057
71153
71247
71306
71402
71490
71550
71648
71734
71796
71891
71986
72046
72141
72235
72295
72390
72484
72542
72637
72733
72789
72889
72982
73042
73136
73238
73294
73392
73487
73544
73640
73734
73797
73894
73990
74048
74140
74241
74300
74397
74489
74550
74645
74739
74799
74895
74992
75048
75144
75242
75297
75397
75492
75549
75647
75740
75801
75894
75990
76048
76145
76237
76294
76395
76483
76540
76638
76727
76789
76886
76978
77039
77135
77228
77285
77384
77477
77535
77631
77726
77788
77880
77984
78043
78137
78236
78293
78392
78489
78543
78638
78738
78794
78887
78991
79046
79141
79235
79292
79385
79478
79539
79637
79730
79789
79882
79983
80037
80134
80229
80285
80377
80472
80530
80629
80717
80774
80870
80960
81019
81113
81205
81263
81358
81445
81506
81604
81684
81745
81842
81928
81989
82085
82179
82240
82334
82430
82490
82586
82681
82742
82839
82934
82994
83087
83189
83249
83344
83445
83504
83606
83701
83762
83854
83942
84013
84104
84203
84262
84361
84458
84513
84608
84699
84762
84858
84951
85011
85104
85194
85254
85353
85444
85501
85599
85694
85754
85850
85955
86009
86104
86207
86263
86357
86461
86519
86617
86722
86779
86878
86980
87039
87134
87238
87298
87397
87491
87552
87643
87743
87804
87902
87992
88052
88146
88239
88294
88389
88480
88534
88633
88720
88777
88875
88969
89025
89121
89216
89272
89369
89463
89522
89616
89710
89773
89869
89968
90025
90123
90221
90279
90375
90474
90530
90626
90723
90782
90877
90971
91031
91129
91203
91261
91357
91431
91487
91580
91662
91719
91817
91905
91966
92059
92155
92211
92308
92398
92455
92552
92645
92703
92799
92896
92955
93051
93151
93208
93306
93397
93454
93549
93638
93699
93797
93886
93949
94042
94144
94201
94296
94400
94457
94555
94654
94711
94806
94904
94962
95059
95160
95216
95316
95408
95471
95565
95664
95725
95818
95918
95976
96070
96168
96226
96321
96421
96480
96573
96676
96734
96831
96926
96984
97079
97174
97233
97330
97424
97484
97578
97680
97739
97833
97933
97992
98089
98187
98246
98344
98440
98500
98596
98697
98754
98850
98952
99009
99107
99204
99262
99358
99455
99514
99605
99707
99764
99859
99958
100014
100113
100203
100263
100356
100444
100509
100604
100695
100754
100851
100942
101001
101097
101195
101253
101349
101433
101509
101602
101699
101760
101856
101958
102014
102109
102213
102272
102371
102469
102531
102626
102728
102787
102886
102983
103041
103143
103237
103296
103389
103493
103549
103647
103746
103805
103902
103999
104060
104153
104259
104317
104409
104519
104577
104670
104781
104840
104934
105035
105097
105191
105298
105351
105451
105551
105607
105702
105804
105863
105964
106051
106112
106206
106300
106357
106452
106543
106606
106703
106798
106858
106951
107048
107110
107206
107297
107358
107457
107552
107609
107706
107803
107862
107954
108060
108116
108214
108310
108368
108466
108557
108617
108719
108814
108869
108964
109058
109120
109215
109296
109371
109464
109557
109621
109714
109812
109869
109965
110059
110116
110216
110304
110364
110459
110551
110607
110704
110793
110849
110944
111034
111094
111191
111279
111342
111439
111532
111591
111686
111777
111841
111934
112030
112093
112186
112286
112346
112446
112546
112602
112694
112795
112852
112948
113045
113103
113201
113299
113356
113456
113551
113610
113704
113802
113861
113955
114056
114112
114211
114307
114364
114458
114564
114621
114719
114813
114873
114967
115069
115123
115220
115319
115376
115472
115573
115630
115725
115823
115879
115972
116065
116124
116221
116313
116372
116470
116561
116621
116718
116803
116868
116965
117053
117112
117208
117300
117356
117450
117549
117607
117703
117799
117859
117955
118047
118105
118199
118290
118348
118445
118532
118593
118692
118781
118838
118933
119026
119082
119179
119263
119324
119417
119511
119569
119665
119757
119815
119910
120007
120065
120160
120247
120309
120409
120489
120548
120645
120727
120788
120883
120965
121021
121116
121190
121243
121339
121406
121465
121563
121633
121693
121791
121873
121932
122026
122114
122178
122273
122377
122436
122532
122644
122701
122803
122910
122969
123068
123166
123225
123314
123418
123477
123570
123671
123730
123825
123926
123984
124081
124173
124229
124324
124417
124472
124569
124667
124724
124824
124932
124988
125085
125195
125252
125351
125452
125512
125607
125714
125776
125869
125983
126038
126134
126241
126301
126401
126500
126561
126654
126761
126818
126911
127017
127075
127169
127275
127334
127434
127527
127585
127678
127776
127834
127931
128034
128093
128191
128297
128353
128450
128550
128608
128706
128806
128861
128956
129058
129115
129213
129316
129374
129469
129575
129630
129724
129830
129885
129983
130085
130141
130238
130343
130398
130494
130590
130652
130748
130847
130906
131001
131103
131162
131253
131359
131419
131515
131619
131678
131777
131872
131934
132027
132133
132189
132287
132385
132441
132538
132642
132699
132794
132897
132953
133048
133148
133202
133299
133395
133454
133552
133648
133708
133800
133899
133957
134051
134141
134199
134297
134385
134445
134541
134634
134692
134786
134877
134938
135029
135122
135183
135279
135367
135428
135523
135621
135680
135773
135874
135933
136024
136122
136181
136279
136369
136429
136524
136626
136681
136777
136876
136934
137026
137125
137183
137279
137374
137431
137529
137624
137682
137776
137872
137935
138031
138125
138184
138281
138374
138432
138531
138621
138683
138778
138874
138931
139028
139117
139175
139271
139359
139418
139515
139608
139667
139764
139862
139918
140015
140116
140176
140274
140370
140429
140525
140627
140687
140777
140887
140947
141041
141145
141208
141303
141410
141469
141564
141671
141727
141819
141924
141981
142078
142178
142236
142332
142427
142488
142581
142682
142739
142837
142929
142989
143083
143183
143241
143333
143433
143491
143585
143683
143741
143838
143937
143996
144093
144198
144257
144347
144459
144518
144611
144715
144771
144865
144968
145024
145122
145220
145277
145370
145474
145530
145623
145717
145777
145878
145964
146024
146121
146209
146266
146359
146451
146511
146609
146707
146760
146855
146949
147009
147108
147199
147255
147348
147446
147500
147591
147695
147751
147847
147952
148005
148100
148195
148253
148348
148439
148495
148591
148680
148738
148832
148926
148983
149083
149169
149226
149320
149406
149466
149555
149646
149704
149803
149886
149948
150046
150147
150204
150301
150401
150458
150555
150648
150706
150800
150903
150957
151051
151153
151211
151305
151404
151465
151558
151652
151709
151805
151895
151950
152051
152143
152199
152294
152396
152455
152553
152655
152714
152809
152907
152967
153064
153166
153221
153318
153418
153476
153574
153678
153733
153829
153928
153985
154079
154174
154235
154330
154430
154486
154583
154684
154739
154833
154934
154991
155084
155184
155239
155335
155436
155490
155583
155691
155748
155846
155952
156007
156110
156198
156260
156353
156461
156514
156606
156714
156772
156868
156974
157030
157125
157223
157280
157378
157473
157528
157626
157727
157785
157878
157989
158045
158139
158245
158300
158397
158492
158552
158647
158754
158811
158903
159009
159069
159167
159269
159323
159421
159514
159573
159667
159766
159826
159919
160026
160081
160176
160279
160337
160438
160531
160590
160686
160788
160844
160935
161041
161098
161194
161302
161361
161458
161558
161617
161710
161814
161869
161964
162065
162124
162220
162326
162386
162484
162580
162639
162736
162829
162891
162986
163091
163149
163240
163345
163404
163497
163606
163661
163759
163855
163913
164013
164110
164168
164263
164364
164423
164519
164617
164676
164771
164861
164923
165017
165109
165167
165259
165359
165416
165507
165615
165672
165766
165870
165930
166026
166122
166184
166283
166377
166432
166527
166626
166684
166779
166874
166938
167033
167126
167184
167280
167367
167424
167518
167617
167674
167768
167870
167929
168025
168128
168185
168282
168375
168435
168535
168632
168689
168787
168891
168948
169042
169148
169206
169303
169404
169460
169556
169659
169719
169813
169918
169976
170071
170178
170234
170332
170429
170491
170588
170691
170748
170841
170948
171006
171104
171206
171263
171362
171457
171522
171617
171719
171775
171870
171977
172033
172130
172234
172294
172389
172498
172559
172654
172762
172819
172914
173022
173079
173173
173285
173344
173438
173550
173606
173704
173807
173868
173963
174073
174128
174219
174327
174388
174486
174596
174651
174746
174860
174915
175015
175114
175172
175265
175372
175428
175523
175627
175684
175782
175882
175942
176036
176135
176195
176293
176396
176451
176544
176653
176713
176806
176919
176977
177068
177180
177239
177336
177442
177501
177594
177706
177764
177856
177969
178024
178121
178224
178284
178379
178482
178537
178635
178730
178786
178879
178982
179037
179129
179226
179289
179382
179480
179539
179634
179731
179790
179885
179987
180047
180141
180247
180310
180402
180513
180569
180665
180772
180829
180921
181032
181089
181187
181293
181350
181447
181552
181608
181705
181806
181861
181955
182060
182110
182203
182305
182360
182456
182556
182611
182707
182804
182862
182955
183055
183108
183200
183300
183357
183449
183548
183607
183703
183806
183860
183957
184053
184111
184202
184304
184359
184457
184558
184614
184709
184812
184872
184967
185069
185128
185223
185325
185378
185469
185578
185632
185729
185828
185886
185981
186083
186137
186233
186326
186379
186475
186567
186626
186715
186817
186874
186971
187067
187125
187220
187315
187372
187465
187565
187623
187715
187825
187877
187969
188077
188131
188230
188321
188381
188478
188576
188630
188725
188823
188881
188976
189076
189130
189226
189322
189377
189470
189568
189622
189716
189814
189871
189966
190072
190126
190223
190331
190385
190483
190584
190644
190733
190847
190901
190997
191109
191160
191258
191366
191423
191522
191617
191679
191774
191866
191926
192022
192119
192176
192270
192372
192430
192528
192629
192689
192786
192885
192940
193036
193136
193191
193286
193394
193452
193547
193664
193719
193817
193936
193991
194085
194196
194253
194351
194455
194513
194607
194703
194762
194857
194939
194995
195089
195162
195222
195316
195400
195458
195555
195641
195698
195795
195887
195945
196041
196142
196201
196296
196413
196469
196564
196676
196738
196835
196938
196999
197091
197199
197256
197352
197456
197512
197611
197710
197767
197860
197957
198016
198109
198203
198259
198353
198454
198510
198606
198707
198764
198861
198963
199022
199117
199217
199273
199369
199477
199532
199636
199734
199793
199889
199995
200056
200154
200251
200311
200407
200507
200566
200658
200755
200821
200917
201023
201079
201176
201273
201331
201425
201519
201580
201676
201774
201832
201927
202032
202089
202186
202287
202344
202447
202538
202599
202694
202799
202854
202956
203054
203114
203211
203315
203377
203475
203581
203637
203735
203842
203903
203999
204110
204173
204268
204379
204436
204533
204639
204695
204791
204896
204954
205049
205151
205213
205308
205414
205473
205568
205677
205736
205832
205940
205997
206091
206203
206260
206357
206465
206524
206620
206726
206788
206883
206991
207046
207140
207243
207305
207402
207503
207565
207661
207761
207822
207916
208019
208075
208173
208270
208327
208422
208525
208582
208675
208781
208839
208935
209038
209097
209194
209292
209354
209445
209550
209609
209706
209809
209867
209962
210067
210127
210222
210326
210384
210478
210576
210635
210732
210832
210889
210983
211080
211143
211238
211333
211392
211486
211580
211637
211733
211826
211883
211981
212074
212136
212228
212331
212391
212485
212583
212644
212745
212839
212901
212993
213100
213158
213255
213356
213417
213514
213614
213669
213766
213863
213923
214017
214120
214178
214276
214375
214433
214530
214623
214685
214781
214873
214938
215033
215133
215190
215289
215387
215445
215540
215633
215700
215793
215894
215953
216047
216153
216207
216303
216403
216463
216562
216659
216717
216809
216909
216965
217059
217153
217211
217308
217404
217467
217567
217675
217729
217822
217936
217991
218086
218191
218249
218347
218459
218515
218609
218732
218785
218883
218994
219051
219146
219255
219313
219410
219510
219570
219671
219771
219831
219928
220033
220090
220187
220286
220345
220440
220548
220598
220694
220796
220852
220945
221045
221103
221198
221302
221356
221449
221543
221596
221694
221770
221828
221927
222006
222068
222163
222254
222312
222408
222499
222555
222652
222741
222800
222896
222992
223050
223145
223245
223304
223397
223500
223557
223657
223750
223804
223899
224000
224056
224148
224254
224309
224405
224506
224560
224661
224750
224810
224908
225006
225063
225158
225263
225321
225416
225517
225575
225672
225770
225827
225924
226028
226085
226184
226286
226346
226443
226546
226604
226698
226797
226853
226950
227047
227105
227200
227298
227357
227453
227551
227609
227706
227799
227858
227956
228049
228107
228201
228304
228360
228460
228561
228619
228717
228818
228873
228967
229068
229125
229224
229324
229383
229484
229585
229644
229741
229841
229897
229994
230088
230149
230245
230343
230405
230500
230593
230654
230748
230839
230901
230994
231096
231152
231248
231350
231408
231504
231601
231661
231757
231854
231909
232006
232100
232162
232257
232361
232417
232509
232615
232670
232764
232861
232916
233009
233107
233166
233265
233365
233421
233515
233611
233674
233774
233866
233921
234017
234108
234171
234268
234369
234429
234523
234625
234683
234776
234881
234931
235027
235128
235182
235279
235378
235433
235528
235625
235682
235777
235868
235925
236024
236108
236169
236266
236362
236419
236512
236617
236674
236769
236870
236926
237022
237118
237176
237267
237375
237430
237528
237627
237684
237781
237883
237936
238035
238129
238188
238282
238378
238434
238531
238625
238677
238775
238861
238920
239012
239101
239159
239256
239342
239399
239494
239587
239645
239736
239835
239890
239983
240079
240133
240225
240327
240378
240477
240567
240624
240719
240811
240871
240963
241060
241119
241215
241309
241368
241466
241562
241615
241712
241805
241862
241953
242048
242104
242195
242296
242342
242433
242529
242578
242667
242757
242816
242921
243002
243052
243142
243241
243292
243390
243482
243534
243626
243702
243770
243831
243957
244014
244072
244202
244247
244328
244432
244476
244571
244655
244710
244805
244895
244948
245036
245123
245187
245286
245373
245426
245516
245604
245660
245752
245836
245894
245994
246071
246129
246224
246309
246360
246455
246537
246588
246681
246761
246815
246907
246984
247039
247138
247212
247269
247365
247438
247496
247592
247667
247726
247823
247902
247959
248053
248138
248198
248293
248377
248431
248527
248607
248668
248764
248849
248908
249002
249094
249158
249248
249339
249398
249493
249572
249631
249732
249810
249872
249967
250053
250116
250213
250295
250353
250450
250529
250587
250682
250769
250827
250921
251013
251072
251169
251268
251327
251419
251517
251579
251675
251764
251821
251917
252009
252066
252166
252256
252314
252412
252502
252558
252651
252742
252798
252896
252981
253037
253134
253219
253281
253376
253461
253522
253616
253707
253765
253861
253951
254011
254107
254193
254254
254349
254431
254491
254587
254679
254733
254831
254911
254968
255062
255138
255194
255289
255361
255415
255509
255574
255633
255728
255786
255846
255943
256005
256064
256162
256234
256294
256389
256462
256524
256619
256697
256758
256850
256946
257002
257098
257191
257250
257347
257441
257499
257593
257686
257743
257836
257922
257981
258076
258167
258223
258320
258410
258472
258567
258660
258718
258810
258906
258962
259057
259159
259214
259311
259411
259473
259565
259675
259733
259827
259930
259988
260084
260188
260247
260345
260445
260507
260602
260709
260765
260865
260955
261017
261113
261207
261267
261360
261461
261518
261611
261712
261769
261867
261962
262020
262116
262216
262274
262369
262466
262530
262623
262731
262791
262886
262986
263047
263141
263245
263304
263398
263503
263561
263657
263759
263818
263918
264005
264071
264167
264264
264320
264416
264508
264568
264666
264761
264817
264915
265007
265066
265161
265253
265311
265407
265502
265558
265653
265748
265808
265906
265999
266058
266151
266242
266303
266398
266495
266551
266648
266745
266803
266899
266992
267054
267147
267244
267303
267397
267491
267552
267650
267742
267801
267899
267997
268056
268151
268251
268307
268405
268498
268556
268649
268741
268800
268898
268989
269050
269143
269241
269300
269397
269491
269551
269648
269739
269799
269897
269994
270055
270150
270250
270309
270401
270507
270567
270662
270766
270824
270916
271018
271077
271172
271276
271331
271435
271530
271587
271685
271781
271839
271935
272031
272088
272181
272283
272340
272438
272537
272598
272696
272795
272858
272953
273056
273115
273211
273317
273374
273473
273580
273640
273738
273846
273906
274002
274109
274167
274262
274370
274429
274525
274633
274689
274785
274886
274948
275049
275140
275200
275297
275391
275448
275547
275640
275698
275793
275889
275952
276050
276153
276211
276302
276405
276468
276564
276666
276728
276822
276926
276991
277086
277192
277255
277349
277451
277512
277611
277710
277769
277868
277967
278027
278124
278225
278281
278377
278471
278529
278623
278715
278776
278873
278961
279021
279115
279211
279267
279364
279461
279520
279618
279710
279772
279867
279964
280026
280121
280228
280285
280384
280488
280546
280641
280739
280801
280899
280997
281056
281150
281253
281309
281406
281499
281561
281661
281748
281808
281905
281993
282053
282150
282241
282301
282399
282492
282553
282648
282745
282804
282899
283000
283058
283154
283255
283314
283409
283505
283563
283660
283749
283806
283904
283984
284049
284146
284222
284285
284385
284451
284512
284608
284672
284733
284829
284897
284958
285054
285129
285190
285285
285362
285424
285517
285603
285663
285762
285854
285914
286012
286106
286169
286263
286360
286420
286512
286611
286667
286766
286852
286911
287011
287097
287157
287255
287349
287408
287503
287590
287653
287748
287836
287894
287992
288080
288143
288236
288336
288396
288490
288591
288649
288745
288841
288898
288995
289090
289151
289249
289348
289407
289499
289609
289665
289761
289861
289920
290016
290111
290170
290263
290363
290424
290518
290619
290680
290778
290879
290936
291032
291124
291184
291281
291371
291432
291528
291627
291686
291783
291881
291942
292038
292137
292193
292287
292387
292447
292544
292642
292703
292798
292899
292959
293052
293149
293210
293310
293400
293458
293555
293656
293713
293809
293918
293973
294070
294170
294230
294325
294424
294483
294579
294677
294738
294834
294942
294997
295093
295197
295257
295353
295455
295515
295609
295712
295770
295864
295965
296025
296122
296219
296282
296378
296484
296541
296634
296736
296795
296893
296991
297049
297146
297240
297302
297395
297495
297556
297653
297748
297806
297903
297994
298053
298150
298243
298300
298394
298489
298551
298648
298752
298808
298907
299003
299065
299163
299260
299320
299416
299519
299579
299678
299780
299839
299936
300039
300098
300192
300298
300355
300450
300558
300613
300711
300809
300873
300969
301071
301130
301223
301321
301383
301476
301577
301635
301733
301827
301887
301984
302066
302139
302234
302330
302390
302490
302576
302642
302739
302845
302902
302997
303105
303165
303263
303368
303431
303528
303635
303694
303788
303899
303956
304052
304165
304224
304321
304431
304489
304585
304690
304747
304844
304947
305004
305101
305198
305258
305353
305452
305512
305609
305708
305764
305863
305960
306016
306116
306210
306270
306366
306469
306528
306626
306726
306790
306885
306986
307048
307144
307242
307301
307397
307499
307559
307658
307754
307817
307915
308011
308073
308169
308266
308324
308421
308515
308576
308674
308766
308829
308923
309019
309078
309173
309262
309320
309417
309501
309561
309658
309744
309805
309905
309991
310053
310149
310241
310298
310393
310487
310545
310640
310738
310798
310895
310999
311056
311154
311258
311315
311412
311509
311568
311664
311759
311819
311917
312011
312068
312166
312258
312316
312412
312501
312559
312656
312743
312802
312896
312989
313048
313142
313245
313303
313398
313504
313563
313659
313760
313818
313915
314011
314073
314164
314270
314330
314426
314532
314591
314686
314785
314844
314936
315033
315091
315187
315286
315343
315442
315538
315600
315693
315800
315854
315950
316047
316102
316201
316294
316355
316452
316556
316614
316709
316811
316871
316968
317064
317122
317220
317311
317369
317465
317559
317619
317714
317809
317869
317966
318059
318115
318214
318299
318358
318458
318546
318604
318698
318794
318855
318951
319051
319108
319203
319296
319357
319450
319546
319606
319703
319800
319859
319952
320056
320113
320213
320305
320364
320462
320554
320610
320705
320799
320856
320951
321041
321100
321197
321284
321343
321436
321521
321581
321673
321762
321821
321914
322005
322063
322155
322252
322310
322404
322496
322555
322652
322736
322797
322892
322988
323044
323142
323240
323298
323397
323496
323554
323648
323755
323809
323909
324002
324061
324156
324245
324308
324407
324497
324559
324656
324747
324808
324902
324998
325054
325152
325245
325303
325403
325492
325554
325649
325746
325806
325899
326007
326063
326160
326268
326327
326422
326528
326589
326685
326784
326840
326938
327037
327093
327191
327287
327348
327446
327543
327606
327703
327808
327865
327967
328060
328121
328219
328319
328378
328473
328583
328639
328737
328839
328900
329000
329094
329157
329255
329345
329408
329503
329606
329661
329760
329861
329920
330013
330110
330174
330266
330361
330422
330521
330611
330669
330766
330858
330919
331009
331112
331170
331266
331358
331418
331516
331603
331666
331761
331859
331921
332016
332117
332178
332274
332372
332434
332535
332626
332689
332785
332882
332945
333039
333146
333205
333302
333407
333464
333560
333659
333720
333814
333914
333973
334068
334167
334226
334322
334421
334482
334579
334681
334738
334834
334927
334989
335085
335183
335245
335342
335443
335501
335598
335701
335759
335852
335954
336012
336110
336207
336265
336363
336461
336522
336616
336718
336776
336874
336971
337030
337125
337222
337281
337375
337467
337531
337624
337725
337783
337881
337979
338037
338136
338228
338291
338386
338486
338546
338644
338746
338805
338903
339006
339068
339162
339267
339326
339424
339529
339586
339683
339790
339851
339948
340059
340118
340215
340320
340378
340477
340580
340638
340733
340840
340900
340995
341104
341161
341255
341358
341417
341512
341609
341671
341766
341866
341924
342018
342117
342179
342275
342368
342429
342526
342613
342675
342770
342864
342924
343020
343123
343179
343279
343380
343442
343536
343639
343698
343795
343900
343956
344052
344160
344218
344317
344424
344483
344577
344684
344742
344840
344944
345002
345099
345206
345266
345362
345471
345529
345624
345740
345799
345897
346005
346065
346159
346270
346329
346425
346533
346592
346691
346794
346853
346949
347050
347109
347205
347305
347362
347461
347561
347621
347715
347821
347881
347976
348082
348139
348235
348339
348394
348490
348594
348654
348747
348854
348912
349013
349112
349172
349268
349369
349428
349523
349626
349684
349778
349883
349940
350037
350136
350196
350294
350393
350452
350546
350647
350704
350799
350903
350961
351057
351161
351220
351314
351420
351477
351573
351674
351732
351827
351924
351984
352079
352180
352240
352335
352440
352496
352595
352695
352751
352848
352947
353005
353102
353201
353259
353352
353456
353513
353611
353711
353770
353868
353963
354023
354119
354213
354270
354364
354463
354519
354613
354713
354772
354868
354962
355022
355115
355210
355267
355363
355455
355513
355610
355707
355764
355861
355958
356017
356114
356211
356267
356365
356459
356514
356608
356706
356766
356864
356964
357020
357114
357209
357268
357363
357452
357512
357609
357702
357760
357857
357956
358013
358107
358207
358263
358359
358448
358508
358604
358696
358756
358853
358954
359011
359104
359207
359265
359361
359455
359513
359610
359700
359758
359854
359946
360004
360099
360194
360252
360346
360436
360496
360593
360681
360738
360836
360927
360983
361077
361175
361234
361327
361431
361490
361587
361685
361741
361838
361929
361991
362084
362186
362245
362340
362444
362500
362596
362694
362751
362849
362936
362997
363094
363188
363246
363344
363440
363499
363593
363693
363753
363846
363942
364000
364097
364184
364244
364341
364435
364493
364589
364694
364753
364850
364949
365008
365107
365199
365256
365351
365452
365510
365605
365709
365768
365864
365967
366025
366120
366221
366275
366373
366469
366527
366622
366721
366780
366876
366977
367033
367129
367218
367278
367374
367464
367524
367615
367716
367775
367870
367974
368032
368129
368231
368288
368384
368483
368542
368638
368742
368798
368893
368998
369054
369151
369253
369312
369406
369503
369561
369655
369753
369809
369905
370006
370064
370159
370255
370317
370414
370509
370568
370661
370761
370817
370914
371014
371071
371170
371272
371328
371420
371519
371578
371673
371764
371823
371920
372017
372075
372171
372267
372327
372424
372514
372574
372669
372760
372816
372912
373005
373064
373160
373265
373323
373416
373528
373585
373679
373783
373840
373936
374033
374096
374190
374297
374355
374451
374556
374614
374712
374804
374861
374956
375046
375104
375197
375293
375349
375443
375539
375597
375695
375786
375847
375945
376037
376095
376190
376292
376351
376448
376556
376613
376709
376819
376878
376974
377079
377137
377232
377336
377397
377490
377597
377655
377753
377851
377912
378010
378104
378161
378258
378352
378410
378508
378599
378659
378757
378848
378907
379001
379096
379152
379246
379341
379399
379495
379590
379651
379749
379827
379887
379983
380057
380116
380211
380292
380348
380444
380528
380586
380680
380763
380823
380920
381000
381058
381157
381238
381300
381395
381489
381547
381641
381739
381797
381894
381985
382043
382140
382224
382284
382380
382469
382528
382624
382720
382778
382875
382972
383030
383128
383230
383284
383379
383480
383535
383631
383732
383791
383885
383992
384051
384147
384247
384308
384403
384501
384557
384659
384749
384811
384907
385008
385067
385162
385260
385319
385415
385504
385563
385659
385753
385810
385907
386002
386063
386160
386258
386314
386410
386503
386561
386656
386748
386808
386905
387000
387059
387153
387258
387314
387406
387509
387566
387664
387759
387818
387915
388007
388068
388165
388263
388321
388419
388513
388570
388666
388759
388818
388917
389009
389067
389164
389260
389317
389414
389506
389566
389665
389753
389813
389907
389996
390056
390155
390247
390306
390400
390504
390563
390663
390766
390824
390920
391018
391075
391171
391265
391323
391420
391514
391573
391671
391767
391826
391923
392016
392074
392167
392263
392320
392415
392515
392575
392670
392777
392836
392931
393037
393094
393191
393292
393351
393448
393551
393608
393702
393804
393864
393957
394055
394111
394209
394290
394353
394451
394544
394602
394696
394801
394859
394954
395059
395114
395213
395312
395369
395464
395575
395630
395722
395836
395894
395990
396099
396157
396258
396356
396415
396512
396619
396674
396770
396877
396935
397034
397135
397192
397287
397383
397440
397536
397626
397682
397778
397875
397930
398029
398123
398182
398277
398378
398435
398527
398627
398682
398778
398879
398940
399039
399141
399202
399296
399402
399462
399558
399658
399719
399816
399921
399980
400077
400182
400241
400336
400432
400492
400590
400683
400740
400841
400935
400992
401088
401190
401244
401338
401434
401493
401589
401684
401742
401835
401937
401997
402091
402193
402253
402350
402440
402503
402599
402697
402756
402850
402950
403009
403106
403206
403264
403361
403458
403515
403613
403699
403759
403852
403942
403999
404094
404180
404237
404334
404408
404466
404560
404628
404689
404786
404858
404918
405014
405100
405159
405255
405342
405402
405494
405591
405647
405743
405844
405901
405995
406100
406159
406252
406349
406407
406504
406588
406646
406747
406831
406891
406989
407080
407139
407235
407334
407393
407487
407585
407641
407741
407837
407893
407991
408091
408152
408248
408351
408410
408508
408608
408667
408762
408863
408922
409017
409122
409179
409273
409379
409434
409529
409634
409692
409791
409885
409945
410039
410138
410195
410290
410386
410445
410545
410637
410695
410793
410882
410941
411035
411129
411185
411279
411377
411434
411530
411636
411693
411789
411894
411951
412045
412149
412205
412301
412405
412463
412559
412664
412724
412819
412918
412977
413070
413169
413227
413323
413417
413478
413575
413673
413733
413830
413924
413985
414080
414174
414232
414328
414424
414485
414579
414683
414741
414836
414944
414998
415095
415196
415252
415347
415448
415505
415602
415704
415761
415858
415961
416020
416119
416217
416275
416371
416464
416523
416619
416715
416775
416874
416970
417030
417126
417225
417284
417376
417476
417534
417629
417727
417784
417880
417981
418042
418141
418241
418298
418393
418495
418552
418648
418748
418807
418905
419003
419063
419159
419256
419313
419409
419507
419565
419661
419759
419816
419916
420013
420073
420170
420269
420324
420416
420523
420581
420679
420786
420844
420961
421052
421112
421204
421307
421369
421458
421569
421629
421745
421820
421886
421986
422094
422144
422239
422336
422403
422503
422606
422663
422759
422868
422926
423022
423132
423191
423288
423392
423453
423570
423664
423712
423808
423910
423971
424070
424170
424231
424356
424428
424488
424586
424680
424742
424840
424944
424998
425091
425201
425261
425362
425458
425520
425620
425724
425780
425877
425983
426043
426136
426240
426301
426392
426495
426553
426652
426745
426804
426899
426995
427055
427149
427245
427306
427400
427493
427550
427645
427746
427804
427898
428005
428064
428158
428273
428330
428426
428532
428590
428685
428795
428853
428953
429057
429113
429208
429313
429371
429469
429565
429624
429717
429816
429874
429967
430071
430127
430225
430324
430383
430479
430578
430636
430730
430828
430887
430982
431083
431141
431236
431344
431404
431502
431606
431663
431758
431861
431919
432015
432119
432178
432278
432378
432436
432530
432629
432686
432781
432871
432941
433038
433140
433199
433295
433400
433459
433553
433650
433711
433808
433902
433961
434059
434158
434219
434315
434420
434479
434573
434672
434732
434829
434919
434980
435075
435178
435235
435332
435437
435492
435590
435690
435748
435849
435933
435996
436088
436179
436242
436340
436433
436490
436588
436689
436746
436842
436939
437003
437118
437204
437263
437363
437474
437532
437636
437740
437799
437894
437989
438055
438151
438255
438308
438405
438496
438551
438654
438720
438783
438878
438946
439008
439102
439177
439236
439332
439411
439472
439569
439658
439716
439817
439910
439970
440064
440166
440228
440327
440426
440487
440584
440685
440739
440858
440925
440987
441080
441183
441238
441333
441430
441490
441587
441683
441745
441842
441936
441994
442088
442180
442238
442334
442429
442487
442585
442690
442749
442842
442953
443013
443106
443208
443273
443371
443480
443536
443632
443744
443801
443899
444009
444066
444161
444266
444329
444424
444530
444587
444683
444780
444841
444941
445033
445096
445196
445292
445352
445447
445548
445608
445704
445802
445859
445953
446046
446106
446203
446298
446358
446455
446554
446610
446706
446804
446862
446960
447045
447101
447200
447276
447333
447430
447510
447570
447662
447750
447808
447906
447989
448048
448144
448232
448290
448388
448477
448542
448638
448741
448798
448893
448990
449048
449145
449235
449296
449394
449491
449550
449645
449746
449807
449902
450002
450062
450163
450254
450317
450413
450518
450577
450672
450786
450840
450939
451046
451107
451204
451304
451366
451461
451564
451623
451720
451825
451882
451980
452088
452148
452242
452356
452412
452512
452616
452675
452771
452883
452943
453041
453151
453212
453308
453424
453483
453579
453693
453752
453846
453960
454020
454119
454229
454291
454388
454501
454563
454658
454771
454829
454927
455030
455093
455191
455298
455357
455450
455561
455620
455717
455826
455883
455979
456082
456140
456235
456340
456400
456499
456600
456665
456762
456873
456929
457024
457131
457188
457284
457394
457452
457548
457661
457720
457813
457928
457985
458081
458192
458249
458348
458452
458511
458605
458718
458776
458872
458982
459040
459137
459239
459301
459399
459501
459559
459656
459761
459818
459917
460018
460080
460175
460280
460339
460439
460541
460600
460698
460803
460862
460959
461066
461130
461229
461336
461395
461493
461597
461659
461756
461868
461924
462020
462131
462190
462286
462399
462456
462553
462657
462715
462815
462913
462975
463072
463174
463235
463333
463436
463496
463592
463691
463749
463846
463944
464002
464098
464201
464259
464351
464458
464520
464617
464722
464783
464879
464982
465042
465140
465240
465299
465399
465496
465558
465656
465761
465818
465917
466020
466077
466174
466275
466333
466429
466530
466591
466689
466794
466852
466947
467060
467118
467213
467319
467375
467472
467570
467627
467722
467823
467882
467978
468082
468138
468236
468336
468394
468493
468588
468646
468741
468840
468899
468994
469104
469161
469258
469360
469425
469521
469620
469679
469774
469871
469929
470023
470128
470186
470283
470387
470446
470541
470641
470700
470794
470894
470948
471046
471148
471207
471301
471409
471466
471560
471669
471727
471824
471928
471987
472085
472185
472246
472342
472444
472502
472600
472701
472760
472854
472956
473014
473105
473209
473267
473360
473475
473530
473629
473746
473804
473901
474015
474075
474171
474282
474338
474434
474544
474604
474697
474812
474870
474966
475071
475131
475228
475326
475383
475482
475572
475630
475723
475824
475882
475978
476086
476141
476238
476340
476398
476493
476593
476649
476744
476847
476901
476998
477108
477163
477263
477372
477432
477533
477633
477690
477788
477887
477945
478042
478146
478206
478303
478410
478468
478566
478664
478723
478823
478916
478975
479068
479175
479232
479329
479433
479490
479590
479693
479749
479844
479948
480004
480097
480200
480259
480355
480459
480517
480615
480722
480782
480879
480983
481040
481136
481236
481292
481390
481490
481549
481644
481751
481809
481902
482010
482066
482162
482259
482316
482413
482504
482564
482661
482754
482813
482910
483008
483063
483158
483251
483308
483404
483487
483546
483642
483721
483781
483877
483951
484008
484103
484174
484230
484324
484401
484458
484558
484637
484695
484794
484882
484944
485041
485146
485204
485300
485405
485465
485563
485661
485720
485817
485909
485968
486060
486142
486200
486290
486365
486422
486515
486589
486649
486744
486825
486882
486977
487058
487123
487219
487312
487371
487465
487568
487625
487720
487822
487879
487976
488066
488129
488223
488319
488379
488478
488578
488635
488734
488833
488893
488988
489087
489146
489243
489336
489395
489492
489575
489634
489734
489819
489877
489975
490071
490131
490224
490334
490394
490487
490602
490664
490759
490869
490932
491029
491138
491194
491290
491393
491452
491548
491652
491714
491808
491921
491978
492075
492184
492241
492337
492443
492501
492596
492698
492756
492854
492949
493008
493106
493201
493265
493363
493460
493524
493621
493728
493784
493878
493979
494042
494141
494234
494295
494392
494478
494539
494636
494726
494784
494880
494970
495031
495127
495219
495279
495378
495461
495523
495619
495705
495767
495862
495957
496013
496111
496208
496269
496366
496467
496525
496620
496714
496771
496867
496959
497018
497112
497212
497274
497372
497474
497534
497629
497726
497785
497880
497974
498034
498130
498237
498290
498382
498478
498545
498638
498742
498800
498898
498992
499050
499149
499242
499301
499398
499498
499556
499651
499758
499816
499915
500013
500071
500168
500268
500324
500419
500521
500580
500677
500778
500839
500939
501037
501096
501195
501288
501346
501445
501536
501597
501696
501792
501852
501948
502046
502106
502202
502295
502354
502449
502546
502603
502701
502802
502862
502959
503063
503126
503225
503325
503386
503481
503586
503646
503739
503850
503907
504003
504110
504169
504268
504367
504426
504523
504619
504675
504771
504867
504925
505019
505110
505173
505269
505365
505425
505523
505612
505671
505766
505857
505916
506010
506110
506165
506265
506353
506413
506511
506587
506648
506745
506815
506876
506972
507045
507105
507197
507271
507331
507425
507500
507560
507659
507730
507788
507887
507959
508024
508121
508202
508263
508356
508447
508507
508602
508692
508749
508844
508922
508980
509076
509143
509202
509295
509357
509418
509513
509571
509631
509727
509783
509845
509940
510004
510063
510158
510226
510288
510383
510464
510526
510629
510719
510783
510882
510982
511044
511138
511243
511301
511400
511499
511555
511651
511754
511812
511906
512010
512067
512160
512266
512322
512417
512517
512578
512680
512775
512832
512928
513020
513078
513172
513271
513328
513427
513528
513586
513682
513794
513852
513948
514058
514114
514210
514307
514369
514463
514564
514625
514720
514825
514880
514979
515083
515140
515236
515336
515401
515495
515592
515652
515748
515843
515898
515996
516091
516153
516251
516353
516413
516510
516614
516671
516769
516866
516924
517019
517111
517171
517266
517362
517420
517517
517613
517671
517768
517870
517926
518024
518123
518183
518275
518381
518441
518535
518636
518695
518792
518892
518953
519051
519157
519216
519310
519416
519473
519573
519665
519726
519822
519915
519977
520072
520168
520227
520322
520418
520477
520576
520668
520727
520823
520918
520979
521074
521181
521239
521332
521444
521503
521600
521707
521768
521864
521971
522027
522119
522224
522285
522382
522486
522546
522638
522745
522807
522903
523001
523059
523155
523247
523308
523405
523496
523559
523652
523747
523809
523905
523994
524055
524152
524237
524297
524393
524485
524544
524637
524737
524797
524894
524995
525055
525150
525249
525310
525407
525505
525566
525664
525765
525826
525924
526032
526091
526187
526296
526358
526453
526553
526612
526708
526807
526864
526959
527057
527118
527213
527315
527372
527468
527568
527626
527721
527814
527874
527974
528070
528130
528221
528326
528384
528483
528578
528640
528735
528830
528887
528986
529077
529137
529233
529329
529390
529487
529575
529635
529732
529811
529870
529965
530039
530099
530198
530267
530327
530423
530496
530555
530651
530716
530783
530879
530953
531014
531111
531195
531255
531350
531439
531500
531595
531682
531742
531839
531922
531981
532077
532162
532220
532314
532401
532456
532555
532633
532692
532787
532857
532917
533009
533079
533137
533230
533301
533360
533457
533527
533585
533684
533755
533813
533906
533995
534053
534151
534244
534304
534401
534500
534559
534655
534750
534809
534902
535001
535059
535158
535256
535317
535409
535512
535573
535671
535767
535823
535922
536008
536066
536163
536248
536310
536404
536500
536557
536650
536749
536807
536903
536998
537057
537156
537249
537310
537404
537513
537571
537670
537774
537835
537929
538037
538097
538191
538295
538355
538450
538556
538616
538712
538818
538878
538972
539077
539134
539230
539326
539384
539485
539579
539637
539732
539831
539891
539984
540090
540149
540245
540346
540403
540507
540595
540662
540760
540863
540922
541009
541127
541184
541282
541387
541446
541541
541646
541705
541800
541905
541962
542062
542164
542221
542318
542416
542476
542572
542673
542731
542828
542930
542991
543089
543195
543256
543352
543455
543519
543612
543723
543780
543878
543985
544047
544144
544249
544312
544407
544517
544578
544677
544782
544841
544938
545043
545106
545201
545311
545371
545474
545578
545639
545733
545841
545903
545995
546106
546165
546261
546385
546431
546541
546651
546697
546794
546904
546960
547060
547153
547220
547314
547419
547481
547575
547680
547738
547834
547935
547997
548092
548198
548254
548349
548455
548513
548608
548715
548774
548870
548982
549039
549137
549235
549297
549393
549496
549555
549652
549747
549811
549905
550000
550060
550153
550235
550293
550387
550458
550518
550615
550689
550753
550850
550931
550992
551087
551172
551238
551333
551431
551491
551586
551689
551748
551846
551949
552008
552105
552204
552263
552357
552455
552512
552608
552703
552763
552859
552956
553018
553111
553219
553277
553369
553470
553529
553625
553723
553780
553879
553980
554039
554138
554244
554300
554395
554501
554560
554656
554756
554813
554913
555009
555067
555157
555263
555322
555420
555521
555578
555673
555767
555827
555923
556016
556073
556171
556268
556326
556423
556530
556590
556683
556796
556856
556952
557058
557116
557215
557317
557374
557469
557576
557635
557734
557840
557898
557995
558098
558159
558255
558356
558413
558507
558612
558670
558766
558873
558932
559028
559125
559188
559282
559382
559442
559536
559641
559700
559795
559906
559966
560062
560175
560238
560335
560444
560503
560599
560710
560767
560864
560974
561031
561126
561235
561292
561389
561490
561549
561642
561744
561803
561897
562002
562062
562159
562267
562325
562421
562529
562588
562684
562786
562842
562940
563043
563103
563206
563306
563369
563464
563576
563632
563726
563831
563890
563985
564094
564155
564251
564362
564421
564519
564630
564689
564786
564889
564946
565041
565143
565202
565299
565400
565460
565560
565665
565728
565821
565936
565993
566089
566198
566256
566351
566470
566527
566639
566749
566804
566934
567023
567074
567178
567290
567347
567442
567564
567617
567719
567825
567889
567987
568096
568154
568252
568356
568413
568512
568611
568670
568766
568861
568923
569021
569112
569176
569269
569362
569420
569516
569617
569674
569774
569876
569935
570029
570143
570202
570301
570405
570465
570562
570672
570731
570826
570941
570998
571097
571207
571266
571368
571470
571531
571625
571731
571790
571886
571989
572050
572147
572249
572310
572409
572504
572563
572659
572757
572817
572914
573015
573075
573174
573279
573339
573436
573538
573594
573693
573793
573854
573951
574059
574119
574214
574326
574383
574483
574586
574642
574737
574838
574896
574993
575093
575151
575245
575352
575410
575509
575611
575669
575766
575869
575927
576020
576130
576189
576287
576396
576457
576555
576660
576719
576815
576918
576974
577072
577177
577238
577339
577447
577507
577600
577709
577769
577867
577962
578022
578120
578216
578278
578375
578477
578537
578634
578737
578796
578898
578987
579051
579145
579250
579311
579408
579518
579573
579670
579776
579839
579938
580041
580100
580196
580301
580361
580459
580564
580624
580721
580835
580894
580990
581097
581153
581250
581358
581419
581516
581627
581688
581785
581898
581956
582050
582159
582219
582313
582421
582482
582581
582686
582748
582847
582957
583015
583111
583216
583278
583372
583475
583535
583633
583742
583802
583904
584012
584071
584168
584273
584331
584431
584530
584589
584685
584785
584845
584940
585046
585103
585199
585299
585356
585453
585547
585607
585702
585802
585862
585956
586066
586122
586216
586324
586384
586483
586583
586642
586738
586847
586903
586998
587110
587166
587267
587372
587430
587529
587625
587684
587784
587874
587933
588031
588128
588188
588287
588391
588450
588547
588653
588711
588808
588916
588976
589076
589188
589250
589352
589471
589530
589628
589747
589804
589900
590020
590078
590173
590291
590349
590449
590558
590618
590712
590820
590877
590971
591081
591137
591234
591345
591403
591500
591616
591675
591771
591884
591943
592040
592159
592218
592312
592432
592494
592590
592710
592773
592872
592989
593046
593143
593260
593317
593421
593536
593597
593696
593810
593870
593966
594078
594138
594239
594347
594409
594505
594622
594680
594777
594907
594963
595061
595197
595259
595357
595492
595552
595656
595788
595845
595943
596081
596143
596245
596381
596442
596538
596676
596734
596837
596964
597020
597120
597253
597306
597407
597533
597591
597689
597814
597869
597969
598086
598141
598241
598358
598414
598507
598624
598684
598786
598898
598956
599059
599165
599223
599319
599429
599489
599589
599701
599759
599856
599972
600028
600125
600234
600294
600397
600501
600562
600663
600771
600832
600931
601041
601099
601201
601302
601361
601459
601566
601624
601722
601825
601885
601987
602095
602152
602246
602359
602418
602515
602625
602683
602780
602889
602952
603049
603167
603223
603320
603430
603487
603586
603694
603753
603856
603962
604022
604123
604228
604290
604391
604499
604558
604655
604764
604821
604918
605027
605087
605184
605299
605357
605457
605567
605626
605723
605831
605890
605988
606092
606155
606256
606361
606419
606520
606618
606676
606774
606862
606924
607024
607101
607158
607253
607335
607395
607490
607575
607633
607732
607816
607876
607979
608069
608130
608231
608331
608392
608490
608589
608646
608746
608835
608894
608994
609085
609149
609242
609350
609407
609505
609610
609670
609769
609867
609927
610022
610115
610176
610285
610371
610430
610532
610629
610689
610787
610893
610951
611050
611150
611207
611305
611404
611462
611561
611663
611725
611820
611930
611990
612084
612188
612248
612345
612441
612501
612595
612700
612757
612851
612958
613015
613113
613210
613272
613370
613464
613525
613624
613716
613774
613869
613973
614030
614125
614227
614289
614385
614494
614555
614652
614759
614817
614914
615025
615081
615177
615277
615337
615432
615529
615586
615684
615777
615839
615937
616037
616097
616192
616305
616362
616459
616563
616622
616718
616825
616883
616981
617089
617149
617241
617362
617420
617516
617635
617692
617789
617896
617952
618048
618149
618205
618309
618399
618461
618556
618658
618717
618812
618912
618972
619070
619167
619223
619320
619420
619480
619574
619686
619745
619840
619962
620020
620118
620228
620290
620386
620494
620552
620648
620753
620812
620909
621014
621073
621167
621269
621325
621420
621511
621570
621669
621765
621823
621919
622018
622082
622178
622284
622344
622439
622538
622595
622695
622786
622844
622943
623039
623097
623193
623293
623354
623453
623548
623609
623705
623794
623857
623952
624049
624108
624203
624300
624360
624456
624556
624616
624716
624809
624870
624966
625058
625117
625216
625303
625364
625462
625557
625619
625715
625817
625878
625975
626075
626134
626235
626326
626385
626482
626583
626642
626739
626846
626904
627000
627111
627171
627271
627375
627436
627531
627642
627699
627795
627906
627966
628069
628172
628234
628329
628430
628491
628588
628682
628739
628838
628928
628988
629088
629182
629241
629338
629432
629492
629590
629679
629741
629837
629926
629987
630083
630185
630243
630341
630449
630507
630602
630719
630775
630872
630980
631038
631134
631243
631297
631396
631497
631556
631652
631758
631816
631913
632008
632068
632165
632254
632315
632419
632509
632570
632668
632769
632828
632926
633022
633080
633177
633279
633333
633432
633536
633596
633690
633803
633862
633956
634061
634122
634219
634322
634381
634477
634581
634640
634737
634842
634900
635001
635100
635156
635254
635350
635410
635506
635610
635670
635768
635875
635936
636037
636143
636203
636298
636400
636462
636559
636666
636726
636824
636936
636996
637097
637204
637264
637359
637467
637524
637625
637730
637789
637889
638004
638060
638158
638275
638336
638438
638547
638603
638699
638807
638866
638966
639075
639133
639232
639341
639403
639499
639597
639669
639773
639876
639937
640050
640146
640210
640305
640420
640480
640582
640687
640744
640850
640946
641004
641104
641207
641266
641366
641468
641527
641625
641722
641782
641878
641975
642034
642130
642226
642286
642383
642484
642543
642642
642740
642800
642894
642991
643053
643153
643256
643314
643411
643521
643581
643678
643785
643843
643941
644046
644104
644202
644302
644363
644461
644562
644621
644715
644823
644884
644983
645097
645157
645254
645365
645422
645520
645628
645688
645783
645901
645960
646055
646171
646230
646328
646440
646498
646599
646713
646772
646865
646992
647048
647145
647268
647328
647427
647548
647604
647702
647819
647877
647974
648091
648152
648250
648364
648422
648522
648627
648686
648787
648890
648948
649044
649146
649204
649304
649399
649459
649560
649655
649715
649812
649909
649965
650060
650161
650218
650319
650420
650482
650582
650695
650752
650856
650949
651007
651106
651202
651260
651355
651459
651518
651611
651726
651782
651879
651990
652049
652148
652255
652312
652409
652515
652572
652671
652781
652839
652936
653049
653111
653207
653317
653376
653471
653572
653633
653731
653833
653892
653986
654092
654150
654246
654348
654406
654505
654598
654654
654752
654836
654899
654995
655089
655150
655243
655351
655408
655507
655605
655665
655763
655861
655919
656016
656119
656178
656275
656386
656444
656544
656652
656711
656809
656913
656971
657071
657162
657223
657323
657421
657479
657577
657675
657734
657829
657924
657983
658084
658168
658228
658325
658413
658474
658571
658669
658727
658822
658927
658986
659087
659184
659241
659343
659433
659493
659591
659690
659748
659845
659951
660008
660106
660203
660264
660359
660454
660512
660606
660699
660761
660860
660950
661010
661113
661195
661255
661351
661424
661484
661578
661648
661707
661802
661880
661937
662035
662125
662184
662284
662371
662435
662537
662635
662693
662790
662898
662956
663057
663166
663228
663325
663437
663497
663594
663700
663758
663857
663952
664009
664107
664192
664251
664345
664437
664495
664591
664685
664744
664840
664944
665003
665099
665205
665264
665360
665460
665518
665615
665723
665781
665880
665995
666055
666154
666268
666325
666424
666524
666587
666684
666790
666848
666944
667051
667112
667207
667313
667374
667474
667568
667630
667726
667821
667881
667979
668081
668139
668238
668350
668410
668508
668617
668676
668770
668885
668939
669037
669149
669210
669310
669434
669494
669588
669710
669770
669871
669982
670040
670138
670252
670312
670410
670526
670586
670688
670797
670857
670955
671067
671124
671223
671338
671396
671492
671608
671667
671764
671875
671937
672032
672143
672205
672306
672411
672475
672571
672685
672745
672845
672955
673019
673114
673230
673285
673380
673499
673557
673654
673765
673828
673923
674040
674095
674195
674305
674360
674458
674570
674630
674726
674836
674898
674996
675105
675165
675261
675369
675427
675524
675632
675690
675788
675897
675957
676056
676172
676230
676328
676438
676497
676595
676711
676769
676866
676983
677043
677139
677259
677319
677417
677532
677594
677692
677811
677869
677970
678084
678144
678245
678356
678418
678519
678608
678685
678782
678888
678952
679068
679164
679219
679323
679430
679488
679586
679691
679752
679846
679961
680020
680115
680235
680291
680390
680509
680567
680663
680780
680838
680935
681048
681108
681209
681324
681383
681483
681597
681655
681753
681867
681924
682025
682137
682195
682291
682403
682464
682563
682670
682731
682831
682933
682994
683089
683197
683255
683354
683458
683519
683619
683727
683786
683884
683990
684049
684149
684254
684317
684416
684525
684587
684681
684799
684853
684950
685055
685117
685219
685323
685382
685477
685583
685643
685742
685849
685906
686004
686104
686165
686259
686365
686424
686523
686628
686688
686783
686897
686956
687054
687165
687221
687318
687423
687483
687583
687692
687750
687846
687956
688016
688116
688221
688280
688378
688479
688543
688641
688746
688802
688899
689000
689063
689162
689260
689320
689413
689517
689576
689671
689777
689837
689937
690046
690107
690203
690313
690376
690475
690569
690634
690729
690834
690894
690991
691098
691156
691253
691357
691414
691510
691604
691665
691763
691857
691917
692013
692118
692171
692261
692367
692435
692531
692644
692701
692797
692905
692965
693060
693171
693229
693331
693414
693478
693575
693663
693721
693817
693915
693975
694071
694173
694231
694329
694422
694483
694580
694683
694742
694835
694946
695004
695103
695217
695277
695375
695481
695540
695634
695744
695800
695901
696009
696069
696168
696285
696344
696440
696561
696620
696719
696836
696893
696989
697111
697169
697267
697392
697448
697549
697676
697730
697829
697944
698006
698103
698216
698278
698374
698492
698551
698645
698765
698822
698923
699030
699089
699186
699292
699352
699452
699565
699623
699720
699839
699899
699999
700107
700167
700265
700376
700434
700532
700646
700705
700801
700922
700980
701078
701192
701254
701353
701465
701525
701621
701738
701796
701895
702013
702074
702169
702290
702347
702448
702556
702612
702713
702827
702885
702982
703104
703164
703266
703387
703445
703540
703659
703718
703818
703932
703993
704092
704213
704273
704370
704492
704551
704652
704763
704824
704924
705037
705098
705195
705311
705370
705468
705585
705645
705741
705849
705912
706011
706115
706177
706274
706388
706447
706542
706660
706718
706827
706925
706992
707100
707212
707271
707368
707494
707554
707651
707797
707844
707940
708056
708125
708230
708350
708410
708508
708632
708688
708788
708905
708962
709064
709171
709232
709327
709441
709498
709593
709700
709763
709863
709963
710032
710128
710233
710295
710390
710503
710563
710663
710773
710836
710932
711047
711108
711206
711315
711375
711473
711588
711646
711742
711854
711915
712013
712129
712188
712284
712401
712457
712554
712664
712721
712817
712928
712991
713089
713201
713261
713359
713467
713528
713627
713731
713794
713890
714000
714061
714160
714268
714326
714424
714533
714596
714692
714806
714861
714956
715068
715127
715226
715339
715401
715498
715618
715677
715777
715901
715958
716060
716181
716243
716338
716459
716520
716621
716733
716793
716888
717009
717065
717164
717285
717344
717442
717570
717630
717726
717855
717913
718014
718137
718196
718295
718424
718480
718581
718710
718768
718866
718994
719052
719154
719273
719330
719431
719549
719610
719708
719834
719890
719991
720114
720169
720267
720388
720444
720539
720656
720717
720816
720932
720992
721089
721214
721270
721369
721488
721548
721648
721761
721820
721918
722035
722094
722192
722307
722372
722470
722589
722649
722751
722860
722921
723021
723133
723194
723294
723410
723467
723566
723683
723745
723843
723958
724016
724115
724218
724282
724381
724494
724556
724654
724765
724827
724928
725038
725098
725199
725307
725367
725463
725577
725633
725735
725839
725898
726000
726103
726164
726261
726366
726426
726527
726626
726684
726785
726883
726950
727052
727161
727219
727321
727433
727494
727592
727708
727766
727864
727979
728037
728135
728250
728311
728411
728524
728584
728681
728791
728851
728952
729058
729116
729216
729325
729383
729483
729595
729650
729749
729857
729919
730017
730126
730184
730281
730387
730448
730549
730653
730716
730814
730927
730987
731085
731194
731253
731353
731457
731518
731614
731727
731784
731887
731995
732057
732159
732272
732332
732432
732543
732602
732700
732810
732870
732968
733078
733142
733241
733354
733413
733515
733623
733683
733783
733889
733947
734046
734154
734212
734313
734415
734480
734577
734686
734746
734844
734943
735002
735101
735201
735260
735361
735463
735524
735623
735732
735791
735888
735998
736055
736153
736253
736312
736412
736514
736571
736673
736775
736835
736936
737040
737101
737199
737299
737359
737462
737555
737615
737715
737817
737881
737977
738087
738150
738248
738358
738419
738521
738624
738685
738781
738891
738953
739051
739159
739217
739316
739420
739480
739578
739671
739732
739829
739924
739980
740077
740176
740234
740335
740437
740496
740594
740697
740758
740857
740958
741016
741114
741226
741285
741380
741502
741560
741661
741779
741838
741935
742047
742106
742203
742311
742369
742475
742583
742639
742736
742848
742910
743011
743106
743165
743266
743359
743419
743517
743616
743678
743774
743888
743946
744043
744156
744218
744315
744428
744484
744582
744705
744761
744862
744989
745049
745145
745282
745338
745439
745555
745616
745715
745825
745886
745984
746100
746156
746255
746368
746428
746524
746637
746694
746789
746899
746956
747055
747172
747233
747333
747457
747514
747617
747732
747790
747887
748000
748061
748158
748283
748338
748442
748560
748622
748722
748842
748899
748999
749099
749160
749259
749366
749428
749525
749637
749696
749797
749907
749967
750069
750167
750226
750329
750417
750476
750575
750646
750712
750813
750888
750947
751044
751141
751203
751302
751415
751475
751572
751695
751755
751854
751976
752033
752132
752242
752299
752400
752502
752560
752660
752765
752823
752921
753029
753089
753189
753300
753358
753458
753574
753633
753733
753849
753907
754007
754117
754175
754273
754382
754442
754538
754651
754709
754808
754920
754979
755077
755186
755246
755343
755445
755506
755604
755703
755763
755862
755957
756017
756114
756219
756276
756375
756483
756544
756645
756758
756818
756914
757026
757084
757182
757287
757345
757444
757549
757608
757701
757814
757874
757975
758080
758140
758237
758351
758410
758509
758615
758673
758774
758865
758928
759024
759125
759184
759283
759386
759445
759540
759654
759714
759811
759926
759986
760083
760194
760252
760350
760469
760526
760625
760751
760810
760907
761034
761093
761193
761313
761370
761465
761579
761638
761736
761850
761907
762009
762116
762178
762277
762387
762446
762547
762653
762711
762812
762911
762972
763068
763179
763237
763336
763449
763510
763607
763726
763789
763885
764003
764058
764156
764266
764324
764422
764534
764592
764689
764803
764861
764961
765070
765130
765227
765331
765391
765488
765595
765653
765754
765870
765927
766024
766144
766204
766303
766416
766476
766575
766686
766746
766844
766962
767016
767114
767231
767289
767387
767499
767560
767661
767767
767825
767923
768034
768098
768193
768315
768373
768469
768586
768646
768745
768863
768920
769017
769135
769195
769294
769409
769467
769564
769684
769744
769843
769952
770013
770116
770227
770287
770384
770506
770565
770664
770786
770844
770947
771064
771125
771221
771345
771403
771502
771623
771683
771783
771903
771964
772062
772185
772243
772342
772460
772519
772616
772735
772794
772893
773007
773069
773163
773287
773347
773444
773564
773621
773719
773836
773896
773993
774113
774172
774269
774394
774452
774548
774675
774733
774830
774953
775009
775109
775234
775291
775391
775513
775569
775666
775785
775842
775940
776049
776110
776207
776323
776379
776479
776592
776648
776745
776851
776908
777006
777090
777151
777250
777337
777394
777497
777594
777655
777753
777863
777922
778021
778133
778195
778293
778414
778474
778573
778691
778752
778853
778967
779026
779129
779230
779291
779384
779494
779552
779652
779760
779821
779927
780025
780090
780185
780291
780352
780452
780551
780611
780712
780818
780880
780975
781099
781157
781256
781374
781435
781534
781649
781706
781802
781924
781980
782080
782195
782258
782357
782478
782536
782640
782750
782808
782910
783021
783080
783179
783291
783351
783451
783565
783625
783724
783836
783894
783988
784102
784160
784257
784373
784434
784531
784654
784712
784811
784929
784991
785096
785205
785266
785365
785485
785542
785642
785758
785820
785921
786037
786097
786196
786303
786367
786464
786580
786641
786737
786871
786930
787019
787138
787195
787298
787397
787473
787571
787684
787751
787850
787969
788033
788131
788260
788318
788418
788540
788605
788702
788829
788893
788992
789120
789182
789281
789406
789464
789561
789686
789742
789841
789966
790026
790119
790250
790307
790411
790524
790580
790681
790796
790856
790953
791073
791130
791228
791344
791405
791506
791618
791675
791773
791886
791947
792046
792160
792223
792321
792441
792499
792604
792715
792777
792878
792999
793060
793154
793283
793343
793443
793568
793628
793728
793847
793905
794008
794119
794188
794282
794406
794470
794567
794695
794755
794857
794982
795040
795138
795271
795327
795424
795557
795617
795720
795820
795911
796013
796146
796203
796303
796441
796493
796596
796728
796784
796886
797016
797071
797173
797297
797352
797451
797576
797634
797735
797860
797916
798020
798144
798200
798297
798424
798478
798580
798708
798763
798860
798995
799046
799148
799275
799328
799430
799552
799606
799706
799830
799885
799985
800109
800165
800260
800384
800438
800537
800652
800710
800808
800918
800979
801077
801183
801242
801342
801448
801508
801604
801717
801779
801877
801988
802047
802147
802255
802317
802417
802527
802589
802687
802785
802844
802943
803027
803088
803188
803277
803338
803435
803533
803595
803694
803794
803852
803953
804049
804106
804202
804304
804365
804466
804568
804625
804722
804823
804880
804978
805072
805132
805233
805332
805388
805489
805588
805647
805746
805857
805917
806014
806120
806183
806282
806393
806451
806550
806670
806731
806828
806957
807012
807108
807229
807286
807386
807502
807560
807658
807775
807836
807936
808055
808114
808213
808329
808385
808482
808597
808653
808752
808865
808925
809025
809146
809203
809301
809419
809479
809577
809683
809747
809844
809959
810017
810115
810231
810292
810390
810508
810569
810667
810785
810840
810941
811060
811121
811218
811351
811409
811507
811636
811694
811796
811916
811974
812071
812197
812254
812351
812476
812532
812630
812747
812805
812908
813016
813073
813171
813276
813334
813431
813543
813601
813706
813819
813875
813970
814094
814153
814252
814371
814430
814531
814655
814714
814811
814938
814995
815094
815214
815271
815369
815487
815544
815642
815753
815814
815928
816027
816088
816189
816300
816356
816457
816565
816623
816723
816839
816898
816995
817117
817176
817276
817391
817450
817550
817664
817725
817821
817939
818001
818100
818220
818279
818379
818488
818548
818644
818748
818808
818908
819011
819070
819169
819269
819330
819426
819530
819587
819689
819787
819846
819942
820051
820112
820213
820324
820387
820488
820608
820669
820766
820887
820942
821043
821156
821216
821316
821432
821491
821594
821705
821761
821862
821968
822027
822129
822236
822295
822394
822506
822567
822666
822791
822850
822947
823069
823126
823222
823336
823395
823495
823612
823672
823770
823897
823959
824061
824179
824241
824340
824450
824509
824608
824714
824772
824874
824976
825038
825138
825245
825302
825404
825498
825558
825658
825759
825817
825915
826026
826084
826181
826304
826365
826464
826580
826641
826738
826851
826911
827011
827120
827180
827285
827389
827448
827544
827652
827708
827807
827910
827968
828070
828174
828236
828332
828451
828507
828606
828716
828775
828874
828981
829040
829137
829251
829309
829410
829521
829582
829681
829778
829850
829949
830063
830116
830220
830327
830386
830495
830605
830661
830760
830874
830931
831036
831139
831199
831297
831418
831474
831572
831698
831758
831855
831982
832038
832137
832255
832319
832421
832547
832607
832720
832823
832890
832990
833111
833168
833267
833388
833446
833548
833672
833729
833831
833950
834009
834106
834215
834274
834375
834480
834537
834637
834746
834804
834901
835012
835070
835167
835271
835328
835428
835532
835592
835690
835802
835863
835963
836086
836143
836245
836359
836419
836517
836641
836701
836800
836924
836990
837088
837209
837267
837369
837472
837533
837634
837738
837797
837893
837992
838050
838149
838237
838294
838394
838475
838536
838635
838732
838792
838890
839003
839061
839157
839278
839336
839436
839559
839617
839714
839829
839888
839987
840091
840153
840250
840364
840421
840516
840631
840689
840789
840886
840955
841051
841154
841211
841307
841418
841478
841576
841695
841754
841851
841969
842031
842129
842242
842300
842399
842509
842569
842663
842786
842842
842941
843054
843114
843212
843321
843379
843479
843583
843640
843743
843848
843907
844008
844121
844179
844272
844385
844446
844543
844659
844716
844817
844937
844997
845093
845229
845288
845385
845518
845576
845676
845795
845851
845947
846068
846130
846226
846346
846404
846502
846620
846678
846777
846887
846944
847044
847148
847209
847311
847423
847481
847581
847702
847763
847863
847982
848040
848139
848253
848311
848408
848522
848585
848684
848803
848862
848961
849072
849131
849230
849334
849392
849492
849598
849655
849755
849862
849922
850020
850128
850189
850285
850389
850451
850553
850664
850723
850822
850947
851004
851102
851233
851293
851392
851516
851575
851675
851797
851856
851957
852081
852142
852236
852364
852420
852519
852635
852694
852791
852903
852960
853057
853170
853227
853327
853444
853505
853605
853722
853778
853880
853992
854049
854150
854264
854323
854423
854546
854604
854701
854824
854887
854983
855104
855165
855263
855384
855443
855539
855660
855721
855816
855937
856000
856101
856215
856275
856372
856490
856547
856647
856761
856821
856919
857042
857104
857202
857330
857383
857489
857599
857662
857758
857883
857945
858043
858175
858237
858338
858470
858531
858629
858760
858819
858920
859050
859111
859209
859340
859400
859501
859626
859688
859791
859906
859968
860069
860189
860248
860348
860471
860528
860625
860742
860803
860908
861017
861078
861178
861292
861353
861453
861574
861634
861734
861854
861916
862014
862133
862192
862295
862410
862471
862572
862688
862750
862852
862971
863032
863131
863248
863309
863409
863523
863583
863683
863795
863858
863956
864075
864133
864231
864343
864403
864504
864617
864673
864775
864887
864944
865048
865157
865221
865318
865436
865496
865596
865710
865768
865867
865984
866045
866147
866263
866324
866425
866546
866603
866704
866818
866880
866979
867093
867152
867252
867368
867427
867526
867640
867702
867802
867910
867972
868072
868181
868243
868342
868457
868516
868621
868733
868795
868896
869010
869070
869166
869286
869343
869443
869556
869621
869717
869838
869895
869998
870111
870169
870272
870375
870439
870537
870650
870707
870805
870916
870976
871075
871179
871240
871339
871442
871500
871601
871702
871764
871865
871970
872032
872136
872240
872298
872398
872503
872563
872665
872773
872835
872932
873048
873106
873210
873317
873376
873473
873586
873641
873739
873854
873909
874007
874127
874186
874285
874398
874458
874555
874668
874724
874822
874934
874993
875089
875205
875264
875367
875466
875527
875627
875723
875784
875880
875993
876055
876155
876278
876335
876434
876548
876618
876716
876835
876898
877002
877126
877188
877287
877425
877482
877583
877709
877769
877866
877987
878046
878147
878261
878320
878417
878534
878594
878693
878801
878856
878956
879058
879114
879212
879311
879371
879469
879557
879614
879712
879792
879854
879951
880053
880111
880207
880316
880378
880476
880580
880639
880735
880842
880902
881003
881111
881172
881269
881382
881440
881541
881643
881701
881801
881895
881954
882051
882146
882208
882304
882404
882465
882561
882675
882735
882834
882942
883000
883098
883203
883261
883361
883473
883536
883633
883763
883821
883918
884051
884109
884207
884329
884386
884485
884603
884662
884760
884878
884937
885034
885152
885210
885312
885419
885476
885573
885681
885744
885840
885960
886018
886119
886239
886297
886396
886516
886575
886671
886791
886849
886948
887069
887128
887227
887353
887410
887509
887622
887681
887781
887889
887949
888049
888161
888220
888320
888442
888500
888600
888719
888779
888874
888997
889054
889156
889279
889337
889433
889561
889620
889720
889840
889898
889995
890113
890173
890271
890392
890450
890549
890672
890733
890832
890946
891003
891102
891209
891271
891368
891490
891548
891647
891769
891826
891925
892040
892101
892199
892318
892375
892473
892588
892650
892751
892866
892924
893021
893134
893192
893291
893404
893462
893561
893683
893742
893838
893966
894023
894126
