43
98
191
278
337
431
512
569
663
746
806
901
991
1048
1141
1243
1301
1391
1512
1569
1662
1804
1862
1955
2091
2147
2242
2374
2432
2526
2653
2707
2800
2918
2973
3068
3180
3237
3330
3435
3492
3585
3680
3735
3831
3924
3980
4076
4164
4221
4315
4400
4459
4552
4644
4701
4795
4905
4962
5058
5175
5235
5328
5455
5512
5607
5731
5789
5883
5998
6055
6147
6258
6315
6410
6516
6572
6667
6768
6827
6920
7017
7073
7168
7254
7311
7408
7491
7550
7643
7733
7792
7884
7977
8036
8128
8226
8282
8374
8475
8532
8626
8727
8785
8878
8973
9033
9125
9225
9281
9374
9485
9543
9638
9759
9818
9911
10051
10106
10200
10340
10397
10491
10631
10686
10782
10915
10969
11065
11192
11246
11338
11465
11519
11613
11732
11788
11880
11990
12046
12139
12237
12294
12389
12479
12537
12633
12721
12779
12873
12971
13030
13123
13220
13277
13372
13471
13527
13623
13729
13788
13882
13998
14055
14149
14253
14311
14406
14504
14562
14656
14751
14809
14903
14989
15047
15142
15225
15282
15377
15453
15514
15608
15690
15748
15842
15935
15994
16086
16199
16255
16350
16469
16527
16622
16737
16794
16888
16988
17045
17140
17220
17279
17373
17447
17505
17598
17676
17735
17828
17910
17970
18061
18144
18203
18296
18380
18436
18529
18616
18674
18768
18857
18915
19009
19111
19169
19261
19375
19432
19526
19650
19706
19800
19926
19983
20076
20197
20252
20346
20456
20513
20609
20709
20769
20860
20959
21015
21110
21207
21264
21360
21460
21517
21613
21720
21777
21871
21979
22037
22131
22240
22297
22391
22503
22562
22655
22771
22829
22923
23038
23096
23192
23300
23358
23450
23560
23618
23713
23822
23880
23973
24081
24139
24231
24337
24393
24484
24589
24645
24739
24842
24899
24994
25094
25152
25244
25345
25401
25494
25594
25651
25746
25839
25898
25992
26087
26146
26232
26349
26402
26496
26600
26658
26750
26858
26917
27009
27108
27164
27256
27349
27406
27501
27594
27651
27744
27840
27899
27991
28092
28151
28244
28345
28403
28498
28603
28660
28753
28867
28924
29016
29141
29197
29292
29414
29472
29567
29682
29739
29832
29941
29997
30093
30203
30261
30356
30469
30527
30618
30731
30787
30881
30990
31048
31142
31247
31304
31398
31497
31554
31647
31751
31807
31901
32006
32066
32161
32270
32328
32420
32532
32589
32683
32787
32844
32939
33050
33108
33199
33321
33378
33472
33591
33651
33745
33866
33923
34016
34132
34188
34282
34393
34448
34544
34651
34707
34802
34908
34964
35057
35175
35232
35328
35447
35505
35601
35720
35776
35871
35989
36047
36142
36253
36310
36402
36515
36571
36666
36775
36833
36926
37042
37100
37195
37306
37362
37457
37566
37623
37718
37821
37876
37972
38067
38124
38217
38325
38382
38478
38602
38663
38754
38885
38943
39040
39163
39222
39317
39444
39502
39594
39724
39781
39878
40007
40064
40158
40284
40340
40433
40550
40606
40701
40816
40873
40966
41081
41137
41234
41346
41402
41498
41604
41661
41755
41855
41911
42006
42108
42166
42260
42368
42427
42523
42641
42698
42792
42909
42965
43062
43177
43234
43332
43439
43496
43590
43701
43757
43852
43962
44020
44113
44226
44282
44376
44485
44541
44637
44744
44801
44897
45008
45068
45162
45284
45340
45434
45555
45613
45706
45827
45884
45976
46097
46154
46246
46358
46415
46509
46611
46670
46764
46868
46924
47020
47122
47177
47272
47381
47438
47531
47636
47696
47790
47891
47949
48045
48147
48206
48301
48415
48472
48566
48681
48739
48833
48943
49004
49098
49205
49262
49356
49455
49515
49609
49713
49773
49868
49972
50029
50122
50226
50284
50378
50475
50536
50629
50731
50791
50882
50988
51048
51142
51243
51303
51398
51501
51558
51653
51748
51809
51903
51999
52057
52150
52248
52306
52402
52492
52550
52645
52736
52795
52890
52975
53032
53126
53222
53280
53375
53479
53537
53631
53747
53806
53898
54013
54070
54164
54279
54336
54431
54550
54608
54701
54819
54878
54973
55087
55146
55240
55351
55407
55501
55607
55661
55756
55856
55913
56008
56114
56173
56266
56370
56428
56522
56623
56680
56775
56881
56937
57033
57140
57200
57294
57408
57464
57561
57678
57734
57830
57934
57993
58088
58190
58246
58341
58443
58501
58595
58700
58758
58851
58961
59015
59109
59212
59269
59363
59464
59520
59617
59717
59776
59870
59972
60030
60124
60222
60279
60375
60468
60526
60620
60725
60781
60876
60980
61036
61132
61241
61297
61392
61498
61556
61651
61756
61814
61907
62020
62077
62173
62291
62349
62441
62558
62614
62708
62817
62874
62969
63078
63135
63230
63340
63398
63490
63596
63652
63746
63846
63903
63999
64108
64164
64256
64365
64421
64518
64622
64679
64775
64874
64932
65024
65121
65181
65276
65376
65432
65527
65631
65691
65785
65896
65954
66047
66151
66208
66303
66404
66463
66559
66666
66724
66819
66924
66982
67077
67183
67239
67335
67435
67494
67590
67690
67748
67841
67942
68000
68094
68192
68251
68347
68442
68502
68595
68690
68747
68840
68948
69006
69101
69213
69273
69366
69485
69544
69636
69751
69807
69901
70006
70070
70165
70282
70337
70432
70544
70600
70696
70808
70867
70962
71066
71125
71219
71320
71376
71471
71573
71631
71729
71827
71886
71982
72075
72135
72230
72322
72379
72474
72567
72624
72721
72816
72872
72968
73062
73124
73219
73322
73379
73474
73571
73631
73726
73826
73884
73978
74089
74145
74239
74354
74413
74510
74621
74681
74776
74883
74940
75033
75134
75190
75284
75384
75442
75539
75634
75694
75789
75892
75947
76042
76137
76194
76290
76381
76438
76534
76629
76691
76783
76892
76949
77044
77153
77209
77304
77405
77462
77558
77654
77712
77805
77911
77967
78064
78167
78226
78320
78430
78484
78577
78677
78735
78829
78921
78978
79075
79159
79224
79319
79414
79472
79567
79662
79719
79812
79910
79969
80062
80162
80220
80316
80407
80460
80550
80640
80699
80792
80879
80936
81034
81119
81181
81275
81361
81421
81515
81601
81662
81755
81852
81909
82002
82106
82161
82259
82361
82419
82511
82616
82673
82767
82866
82922
83016
83108
83169
83264
83356
83415
83509
83583
83658
83750
83838
83896
83990
84084
84140
84235
84330
84389
84483
84593
84652
84744
84858
84913
85009
85114
85173
85269
85379
85439
85531
85648
85705
85799
85908
85962
86056
86159
86216
86311
86414
86471
86564
86668
86724
86820
86922
86981
87076
87172
87232
87325
87420
87479
87572
87663
87720
87816
87913
87969
88065
88158
88216
88310
88402
88460
88553
88642
88702
88799
88894
88952
89044
89144
89204
89296
89399
89454
89548
89649
89704
89800
89902
89959
90054
90167
90226
90319
90437
90494
90588
90700
90757
90852
90963
91021
91116
91232
91288
91385
91502
91558
91652
91767
91826
91918
92023
92082
92178
92278
92336
92432
92534
92591
92686
92793
92849
92941
93041
93098
93196
93287
93345
93440
93532
93592
93686
93782
93842
93937
94030
94089
94183
94271
94329
94425
94512
94575
94669
94776
94835
94929
95045
95103
95199
95313
95374
95468
95583
95640
95733
95843
95901
95996
96099
96157
96252
96348
96404
96498
96589
96647
96739
96825
96884
96980
97062
97121
97217
97305
97365
97459
97557
97618
97711
97817
97871
97965
98066
98129
98224
98324
98384
98478
98582
98639
98733
98830
98889
98985
99078
99138
99233
99321
99379
99476
99565
99623
99719
99814
99872
99968
100066
100124
100220
100321
100379
100469
100566
100621
100715
100799
100856
100950
101023
101081
101178
101247
101305
101400
101476
101536
101628
101706
101768
101862
101950
102008
102101
102200
102257
102351
102456
102515
102608
102711
102768
102863
102956
103014
103109
103199
103259
103354
103450
103507
103603
103697
103757
103850
103947
104005
104099
104193
104250
104346
104435
104493
104587
104685
104747
104837
104943
105000
105094
105199
105258
105353
105460
105520
105610
105727
105783
105876
105985
106042
106135
106244
106302
106396
106498
106552
106645
106741
106796
106890
106990
107047
107142
107243
107301
107395
107500
107557
107652
107756
107814
107909
108022
108081
108177
108297
108355
108449
108566
108622
108718
108825
108886
108978
109084
109143
109237
109348
109403
109499
109613
109671
109766
109869
109931
110024
110124
110182
110278
110380
110436
110531
110636
110694
110789
110903
110960
111054
111158
111216
111311
111409
111467
111563
111665
111721
111815
111915
111973
112068
112171
112229
112323
112417
112476
112570
112663
112722
112815
112911
112969
113063
113165
113222
113315
113419
113481
113572
113681
113738
113832
113942
113999
114094
114195
114254
114348
114444
114503
114597
114697
114755
114850
114954
115011
115105
115212
115270
115361
115469
115526
115620
115717
115772
115867
115960
116017
116112
116203
116263
116356
116452
116509
116605
116697
116753
116846
116935
116991
117086
117170
117230
117327
117417
117474
117568
117675
117730
117824
117940
117996
118091
118209
118267
118360
118490
118545
118640
118769
118827
118921
119046
119102
119194
119311
119366
119462
119577
119634
119728
119845
119905
119999
120123
120179
120275
120394
120455
120548
120665
120719
120808
120920
120977
121071
121176
121234
121326
121442
121499
121589
121710
121766
121859
121980
122039
122131
122256
122311
122405
122525
122583
122678
122787
122846
122938
123041
123097
123191
123301
123357
123451
123567
123624
123716
123841
123899
123992
124108
124166
124260
124369
124425
124521
124630
124687
124779
124890
124946
125043
125149
125207
125300
125406
125465
125559
125677
125734
125830
125961
126018
126114
126245
126301
126395
126514
126572
126667
126788
126844
126940
127066
127122
127218
127336
127395
127490
127596
127655
127748
127853
127908
128002
128104
128160
128255
128349
128408
128503
128589
128647
128740
128829
128890
128985
129076
129135
129229
129327
129385
129476
129575
129633
129726
129821
129879
129974
130084
130141
130235
130356
130416
130509
130627
130682
130780
130892
130948
131043
131155
131213
131308
131425
131481
131577
131697
131751
131848
131954
132013
132107
132213
132270
132366
132472
132529
132626
132720
132780
132873
132968
133025
133119
133209
133264
133362
133452
133510
133605
133695
133758
133851
133951
134010
134103
134207
134262
134356
134461
134519
134614
134722
134781
134876
134995
135052
135147
135259
135317
135412
135520
135580
135674
135780
135835
135928
136032
136089
136181
136286
136344
136438
136540
136598
136692
136792
136849
136945
137040
137098
137193
137282
137340
137435
137515
137572
137665
137739
137797
137888
137961
138019
138113
138194
138252
138346
138430
138489
138583
138667
138726
138820
138910
138971
139063
139166
139224
139318
139425
139483
139577
139685
139742
139835
139936
139991
140086
140183
140237
140334
140432
140489
140583
140689
140746
140840
140953
141010
141104
141206
141264
141358
141468
141526
141619
141737
141795
141887
142006
142062
142158
142272
142331
142423
142531
142588
142682
142792
142847
142941
143059
143119
143212
143336
143394
143488
143609
143667
143763
143875
143933
144027
144136
144192
144284
144382
144441
144536
144636
144694
144787
144889
144947
145039
145149
145205
145301
145416
145476
145567
145681
145742
145834
145954
146012
146107
146233
146291
146387
146509
146567
146662
146778
146834
146929
147042
147101
147193
147309
147365
147458
147567
147624
147721
147825
147881
147978
148081
148137
148229
148338
148394
148489
148596
148655
148750
148860
148917
149009
149113
149166
149259
149356
149413
149506
149606
149664
149759
149864
149923
150015
150123
150180
150277
150376
150436
150532
150642
150702
150794
150922
150982
151075
151203
151262
151359
151480
151539
151633
151754
151808
151905
152025
152081
152174
152290
152346
152441
152548
152602
152697
152791
152848
152943
153027
153091
153184
153286
153345
153439
153551
153608
153704
153814
153873
153968
154086
154142
154236
154357
154419
154514
154643
154701
154792
154925
154981
155077
155203
155259
155354
155470
155528
155623
155736
155793
155890
156007
156066
156158
156275
156333
156426
156536
156591
156687
156786
156846
156939
157048
157104
157196
157303
157361
157453
157559
157616
157712
157811
157869
157963
158061
158120
158211
158316
158373
158467
158573
158632
158726
158832
158896
158987
159098
159156
159251
159365
159424
159519
159635
159694
159789
159911
159968
160063
160175
160233
160328
160443
160500
160594
160710
160766
160861
160970
161029
161122
161224
161280
161374
161477
161532
161628
161736
161793
161887
162004
162062
162156
162276
162334
162426
162543
162600
162696
162813
162871
162965
163089
163143
163241
163363
163423
163517
163645
163699
163793
163900
163960
164055
164163
164222
164313
164431
164490
164583
164706
164763
164860
164988
165048
165141
165265
165322
165417
165534
165592
165686
165818
165876
165971
166102
166161
166256
166387
166444
166535
166665
166719
166815
166940
166999
167094
167224
167283
167379
167510
167565
167662
167794
167850
167944
168072
168129
168223
168343
168399
168491
168599
168655
168749
168858
168914
169010
169135
169194
169287
169420
169479
169573
169706
169765
169862
169992
170049
170142
170266
170322
170417
170540
170598
170693
170819
170874
170968
171094
171152
171247
171363
171418
171512
171624
171678
171776
171882
171938
172035
172137
172196
172291
172390
172448
172541
172634
172694
172791
172890
172948
173043
173147
173207
173300
173404
173460
173556
173654
173712
173807
173919
173975
174071
174182
174239
174333
174449
174505
174599
174710
174766
174861
174972
175027
175120
175228
175284
175380
175482
175541
175637
175735
175791
175887
175984
176041
176136
176242
176299
176394
176506
176566
176661
176779
176836
176931
177041
177097
177194
177304
177362
177456
177574
177630
177724
177842
177900
177994
178106
178165
178258
178373
178429
178521
178636
178696
178792
178906
178965
179058
179168
179225
179319
179429
179487
179584
179701
179758
179853
179975
180033
180128
180248
180306
180401
180514
180574
180666
180774
180830
180925
181038
181096
181190
181305
181365
181458
181577
181634
181730
181837
181894
181988
182098
182157
182256
182358
182416
182510
182616
182673
182769
182868
182925
183019
183118
183177
183269
183384
183439
183535
183660
183716
183809
183935
183990
184082
184197
184255
184351
184462
184521
184616
184726
184784
184881
184989
185045
185141
185244
185300
185395
185496
185553
185647
185749
185807
185901
186006
186063
186158
186261
186322
186414
186521
186578
186674
186779
186836
186930
187048
187107
187200
187320
187377
187471
187582
187640
187736
187833
187895
187989
188083
188144
188238
188347
188403
188498
188616
188675
188769
188885
188943
189038
189149
189205
189301
189406
189465
189560
189656
189715
189810
189906
189964
190057
190161
190216
190313
190417
190478
190570
190675
190734
190829
190933
190991
191087
191202
191259
191354
191471
191529
191623
191731
191787
191884
191990
192045
192142
192239
192297
192392
192493
192549
192644
192732
192788
192882
192968
193025
193119
193203
193262
193356
193441
193501
193596
193690
193746
193840
193938
193995
194090
194196
194258
194353
194468
194527
194621
194733
194790
194885
194990
195050
195143
195249
195306
195401
195504
195562
195657
195757
195816
195911
196004
196061
196155
196249
196307
196402
196501
196557
196653
196755
196812
196908
197004
197065
197159
197252
197313
197405
197494
197552
197647
197733
197792
197888
197977
198035
198129
198218
198277
198371
198467
198525
198618
198724
198783
198877
198989
199051
199145
199261
199318
199412
199522
199580
199676
199785
199844
199939
200047
200104
200198
200300
200358
200454
200551
200610
200706
200803
200862
200955
201060
201117
201210
201313
201369
201466
201560
201619
201714
201806
201864
201960
202052
202110
202205
202301
202359
202454
202552
202613
202705
202806
202865
202959
203056
203112
203206
203311
203370
203465
203569
203627
203721
203819
203877
203970
204068
204125
204221
204326
204384
204479
204591
204649
204744
204865
204922
205019
205131
205189
205285
205397
205453
205549
205657
205714
205808
205912
205972
206069
206158
206219
206312
206404
206464
206559
206664
206720
206817
206934
206993
207087
207204
207262
207355
207464
207519
207613
207709
207766
207860
207943
208002
208093
208167
208232
208321
208415
208472
208565
208653
208717
208813
208895
208961
209055
209154
209212
209307
209405
209462
209555
209651
209709
209803
209902
209960
210055
210152
210208
210303
210390
210449
210543
210631
210689
210784
210881
210940
211036
211139
211198
211291
211405
211463
211557
211675
211733
211828
211938
211999
212092
212202
212261
212355
212464
212522
212617
212736
212796
212891
213024
213084
213178
213320
213381
213475
213612
213669
213765
213894
213951
214047
214168
214228
214321
214441
214499
214594
214710
214767
214862
214965
215024
215117
215215
215275
215369
215475
215532
215626
215735
215796
215889
216000
216057
216154
216270
216328
216425
216544
216599
216693
216807
216866
216961
217082
217141
217235
217361
217421
217513
217640
217698
217794
217913
217971
218064
218172
218231
218324
218429
218486
218581
218685
218742
218835
218935
218995
219089
219186
219243
219337
219432
219490
219586
219690
219748
219841
219952
220010
220103
220212
220269
220365
220471
220528
220624
220721
220779
220874
220966
221025
221121
221216
221272
221368
221478
221539
221633
221754
221812
221907
222030
222088
222183
222301
222360
222452
222562
222619
222714
222817
222876
222971
223078
223137
223231
223335
223391
223486
223590
223646
223741
223838
223897
223993
224094
224152
224247
224359
224414
224509
224621
224679
224776
224886
224944
225038
225145
225201
225297
225399
225456
225551
225650
225709
225803
225907
225966
226059
226167
226225
226321
226421
226480
226576
226673
226733
226828
226922
226982
227076
227186
227244
227338
227462
227520
227617
227746
227804
227898
228019
228077
228172
228295
228354
228447
228573
228631
228728
228838
228898
228992
229101
229158
229252
229356
229413
229507
229618
229676
229770
229888
229947
230042
230165
230225
230321
230436
230494
230588
230700
230757
230851
230971
231029
231124
231249
231310
231405
231527
231585
231680
231792
231852
231950
232061
232117
232210
232325
232384
232480
232600
232658
232753
232869
232928
233022
233132
233187
233285
233391
233449
233549
233649
233711
233804
233914
233971
234066
234176
234234
234331
234429
234489
234583
234693
234751
234846
234952
235012
235108
235222
235281
235377
235494
235549
235646
235762
235821
235916
236039
236097
236192
236319
236377
236473
236595
236653
236747
236868
236926
237020
237136
237194
237292
237407
237465
237559
237667
237725
237821
237923
237979
238074
238178
238238
238331
238441
238500
238594
238700
238758
238852
238968
239026
239122
239246
239305
239400
239520
239579
239677
239789
239849
239943
240066
240123
240215
240343
240400
240496
240612
240672
240765
240877
240934
241030
241145
241201
241296
241410
241467
241561
241671
241725
241820
241921
241978
242074
242175
242234
242326
242428
242491
242586
242694
242753
242850
242957
243018
243110
243230
243289
243382
243510
243569
243665
243799
243858
243952
244075
244132
244229
244354
244412
244505
244632
244691
244787
244908
244966
245062
245172
245235
245329
245437
245495
245589
245699
245756
245850
245959
246017
246112
246218
246274
246368
246477
246535
246631
246757
246818
246913
247044
247104
247201
247326
247384
247480
247610
247669
247766
247896
247955
248050
248173
248232
248328
248444
248500
248596
248709
248766
248862
248976
249033
249127
249240
249298
249395
249498
249555
249652
249758
249821
249917
250030
250088
250183
250291
250348
250443
250547
250604
250699
250804
250860
250954
251066
251123
251219
251332
251392
251485
251591
251648
251741
251841
251897
251994
252086
252144
252239
252343
252401
252494
252608
252664
252760
252872
252931
253028
253125
253184
253277
253359
253421
253515
253589
253647
253741
253812
253869
253966
254044
254104
254199
254278
254340
254435
254515
254576
254671
254764
254824
254918
255018
255075
255172
255280
255338
255433
255536
255596
255689
255792
255849
255944
256049
256106
256203
256309
256364
256458
256562
256623
256717
256816
256870
256966
257060
257120
257217
257316
257373
257468
257571
257626
257722
257823
257882
257978
258081
258140
258233
258329
258391
258485
258583
258642
258736
258849
258908
259003
259121
259181
259275
259401
259459
259551
259682
259740
259835
259956
260014
260109
260225
260285
260382
260498
260558
260653
260775
260831
260926
261045
261105
261199
261321
261377
261472
261589
261646
261741
261858
261918
262012
262129
262189
262284
262403
262460
262555
262667
262727
262821
262932
262991
263085
263201
263261
263357
263477
263537
263630
263751
263809
263905
264014
264070
264166
264275
264335
264427
264540
264598
264695
264804
264862
264957
265064
265122
265215
265323
265383
265476
265590
265648
265746
265857
265918
266013
266117
266176
266273
266383
266443
266539
266658
266717
266812
266928
266987
267082
267194
267254
267349
267461
267521
267614
267730
267789
267883
267996
268054
268149
268261
268317
268411
268520
268577
268670
268795
268856
268950
269077
269135
269230
269359
269417
269512
269632
269692
269786
269904
269962
270058
270182
270240
270335
270459
270518
270614
270735
270790
270886
271001
271062
271157
271279
271338
271432
271553
271611
271706
271827
271886
271979
272093
272151
272245
272354
272412
272507
272620
272678
272772
272882
272943
273038
273151
273213
273307
273415
273475
273569
273686
273744
273838
273969
274029
274126
274259
274320
274413
274541
274600
274698
274812
274871
274965
275084
275143
275238
275360
275418
275516
275638
275695
275789
275910
275966
276063
276177
276235
276329
276450
276507
276602
276728
276785
276880
277005
277064
277159
277287
277343
277439
277556
277616
277711
277842
277898
277993
278125
278182
278277
278409
278468
278564
278691
278745
278843
278969
279028
279122
279251
279310
279404
279533
279590
279685
279811
279868
279963
280095
280153
280248
280385
280446
280542
280674
280731
280829
280951
281009
281104
281216
281275
281370
281485
281542
281638
281750
281809
281904
282010
282069
282164
282268
282326
282423
282527
282588
282683
282796
282856
282951
283061
283120
283218
283322
283381
283481
283579
283638
283733
283843
283900
283995
284088
284145
284241
284319
284380
284475
284560
284619
284713
284799
284861
284955
285046
285103
285198
285295
285353
285448
285550
285612
285706
285816
285875
285971
286080
286137
286232
286335
286393
286489
286594
286652
286746
286852
286907
287004
287104
287163
287259
287351
287414
287509
287596
287656
287749
287846
287903
287996
288121
288182
288277
288412
288471
288565
288700
288759
288854
288989
289047
289141
289268
289324
289419
289537
289595
289691
289807
289864
289960
290064
290123
290218
290316
290375
290470
290569
290627
290720
290826
290883
290979
291081
291138
291233
291338
291398
291493
291596
291656
291750
291864
291925
292022
292148
292209
292304
292429
292489
292585
292698
292755
292851
292963
293022
293115
293230
293287
293383
293485
293547
293643
293743
293803
293898
293997
294054
294152
294250
294310
294406
294507
294567
294662
294766
294824
294920
295027
295084
295180
295287
295348
295443
295549
295606
295701
295805
295860
295956
296055
296114
296209
296312
296371
296466
296567
296625
296721
296813
296873
296971
297066
297125
297221
297320
297380
297473
297575
297631
297728
297822
297881
297977
298068
298128
298224
298312
298375
298471
298572
298629
298726
298818
298874
298970
299055
299118
299212
299310
299372
299467
299570
299627
299723
299821
299879
299974
300068
300126
300222
300315
300373
300465
300570
300627
300721
300825
300884
300982
301079
301141
301234
301328
301385
301479
301567
301628
301723
301819
301878
301978
302073
302135
302230
302331
302389
302483
302582
302643
302737
302850
302910
303002
303126
303183
303277
303393
303449
303546
303656
303713
303806
303914
303975
304069
304182
304234
304329
304425
304483
304580
304665
304727
304820
304906
304973
305068
305158
305216
305312
305402
305460
305556
305643
305703
305798
305894
305952
306046
306150
306209
306306
306415
306473
306566
306678
306737
306830
306937
306995
307091
307188
307249
307345
307430
307504
307598
307698
307756
307850
307947
308007
308102
308205
308263
308360
308454
308530
308625
308736
308794
308888
308991
309048
309144
309245
309304
309397
309508
309566
309658
309768
309828
309922
310022
310085
310181
310280
310343
310436
310541
310600
310697
310793
310853
310949
311043
311105
311199
311304
311363
311458
311566
311626
311721
311824
311884
311979
312073
312129
312228
312314
312373
312468
312556
312618
312716
312806
312865
312959
313045
313106
313201
313294
313353
313444
313549
313608
313703
313808
313869
313963
314066
314125
314218
314323
314382
314479
314582
314640
314734
314833
314891
314985
315069
315137
315233
315328
315390
315486
315587
315646
315737
315832
315893
315987
316078
316137
316233
316327
316386
316481
316577
316640
316734
316836
316893
316989
317087
317143
317238
317335
317393
317491
317587
317647
317741
317839
317896
317990
318085
318141
318237
318331
318390
318487
318586
318644
318739
318826
318887
318981
319056
319119
319213
319289
319347
319441
319521
319581
319676
319759
319818
319912
320000
320060
320153
320247
320306
320400
320501
320560
320657
320754
320816
320909
321012
321071
321167
321268
321325
321422
321517
321576
321672
321764
321825
321920
322008
322064
322157
322241
322302
322396
322488
322545
322641
322740
322800
322896
323008
323067
323161
323276
323333
323428
323540
323598
323693
323809
323869
323960
324081
324140
324236
324339
324400
324494
324601
324659
324754
324861
324919
325015
325118
325175
325270
325367
325427
325520
325613
325672
325767
325866
325925
326022
326122
326184
326278
326385
326443
326542
326639
326697
326797
326890
326949
327054
327142
327203
327298
327391
327451
327543
327636
327694
327789
327875
327933
328029
328108
328170
328264
328367
328426
328522
328668
328726
328821
328952
329010
329104
329229
329283
329378
329495
329551
329646
329750
329812
329905
330002
330063
330157
330240
330301
330396
330470
330530
330626
330693
330752
330849
330916
330975
331067
331139
331200
331294
331378
331436
331529
331618
331677
331774
331867
331926
332020
332116
332178
332271
332370
332429
332523
332619
332676
332771
332866
332925
333020
333119
333179
333274
333376
333435
333528
333628
333685
333781
333881
333937
334033
334133
334195
334289
334392
334449
334544
334644
334701
334797
334894
334956
335049
335150
335209
335304
335406
335467
335562
335671
335729
335826
335935
335995
336090
336206
336262
336357
336464
336521
336615
336719
336776
336869
336980
337038
337133
337246
337306
337402
337512
337574
337666
337778
337837
337929
338038
338095
338191
338288
338348
338442
338534
338594
338688
338790
338848
338948
339051
339111
339206
339321
339379
339473
339588
339645
339740
339849
339906
340002
340096
340159
340250
340357
340415
340507
340618
340679
340775
340888
340948
341042
341162
341221
341315
341434
341493
341587
341692
341753
341847
341954
342010
342104
342204
342264
342358
342460
342522
342615
342723
342782
342874
342983
343043
343139
343247
343309
343404
343511
343569
343662
343775
343833
343929
344042
344102
344196
344312
344372
344467
344580
344637
344732
344843
344903
344996
345099
345156
345251
345347
345407
345501
345595
345653
345748
345832
345893
345986
346071
346136
346230
346313
346372
346467
346541
346601
346696
346766
346824
346919
346992
347051
347145
347222
347282
347377
347455
347515
347608
347684
347746
347839
347917
347978
348071
348158
348217
348312
348393
348453
348548
348634
348693
348787
348875
348935
349028
349112
349169
349264
349348
349405
349500
349583
349646
349742
349837
349899
349994
350094
350153
350248
350349
350408
350504
350600
350661
350756
350849
350908
351003
351095
351154
351248
351349
351407
351502
351611
351672
351766
351884
351942
352036
352153
352213
352309
352431
352490
352585
352704
352763
352859
352977
353037
353132
353267
353326
353421
353554
353614
353710
353850
353908
354004
354134
354192
354288
354405
354463
354557
354663
354722
354816
354925
354982
355077
355187
355247
355342
355452
355513
355608
355722
355781
355877
355986
356048
356142
356275
356334
356429
356571
356632
356727
356867
356924
357021
357150
357208
357306
357431
357488
357583
357705
357764
357859
357978
358037
358131
358249
358307
358401
358513
358570
358664
358773
358833
358928
359046
359104
359199
359322
359382
359478
359602
359662
359757
359878
359935
360031
360151
360210
360305
360434
360494
360587
360713
360773
360869
360986
361045
361139
361253
361312
361408
361526
361583
361679
361797
361857
361952
362069
362127
362223
362330
362390
362487
362601
362659
362754
362874
362930
363029
363144
363203
363299
363413
363471
363566
363683
363740
363837
363955
364015
364110
364225
364284
364380
364490
364547
364642
364755
364815
364909
365028
365087
365181
365297
365357
365453
365565
365623
365718
365828
365886
365982
366092
366151
366248
366362
366422
366517
366632
366691
366786
366899
366960
367055
367178
367236
367331
367449
367506
367603
367715
367771
367867
367980
368039
368135
368252
368310
368407
368524
368584
368680
368793
368851
368946
369063
369120
369215
369331
369391
369485
369601
369659
369757
369872
369931
370028
370151
370211
370306
370430
370488
370584
370697
370755
370852
370961
371018
371114
371228
371284
371381
371485
371544
371639
371741
371801
371896
371999
372056
372151
372267
372326
372422
372541
372601
372695
372815
372871
372967
373077
373136
373232
373351
373409
373504
373623
373681
373777
373890
373951
374045
374158
374217
374310
374426
374484
374580
374695
374755
374850
374969
375027
375121
375231
375289
375385
375492
375553
375646
375758
375817
375912
376031
376088
376186
376307
376365
376460
376573
376631
376725
376832
376893
376989
377101
377161
377255
377371
377430
377524
377651
377709
377806
377928
377986
378081
378205
378264
378361
378491
378551
378646
378780
378840
378935
379061
379120
379215
379328
379385
379480
379596
379654
379750
379873
379932
380027
380150
380207
380303
380420
380478
380576
380683
380743
380837
380955
381013
381109
381236
381297
381394
381526
381586
381680
381814
381871
381969
382092
382150
382245
382366
382424
382521
382645
382704
382800
382926
382985
383081
383206
383265
383361
383488
383547
383642
383759
383816
383914
384032
384091
384190
384307
384365
384460
384579
384637
384735
384857
384917
385011
385129
385186
385281
385391
385448
385544
385672
385731
385827
385968
386027
386124
386266
386325
386421
386560
386619
386716
386844
386903
386999
387119
387177
387273
387381
387439
387537
387642
387701
387797
387905
387964
388059
388173
388230
388326
388447
388507
388602
388725
388784
388881
389003
389061
389158
389296
389356
389452
389594
389654
389750
389885
389942
390037
390164
390222
390320
390437
390496
390592
390698
390758
390853
390954
391012
391108
391220
391280
391375
391495
391553
391649
391777
391836
391935
392067
392126
392221
392351
392408
392505
392632
392691
392787
392907
392966
393063
393177
393235
393333
393439
393497
393592
393713
393769
393866
393989
394050
394144
394269
394326
394423
394550
394608
394706
394825
394885
394980
395094
395150
395246
395367
395424
395521
395646
395705
395801
395931
395990
396086
396220
396281
396377
396504
396564
396661
396783
396842
396937
397067
397125
397221
397349
397409
397506
397628
397687
397784
397913
397972
398069
398202
398262
398357
398487
398545
398644
398759
398818
398916
399034
399091
399186
399306
399363
399462
399576
399637
399732
399840
399899
399994
400099
400156
400253
400364
400423
400521
400642
400702
400798
400919
400979
401076
401197
401257
401351
401459
401517
401614
401715
401776
401872
401981
402042
402136
402267
402326
402421
402557
402616
402712
402848
402906
403002
403128
403186
403281
403407
403465
403559
403693
403751
403848
403984
404044
404141
404277
404334
404432
404554
404615
404711
404829
404885
404982
405097
405155
405255
405367
405426
405521
405633
405691
405787
405899
405958
406054
406157
406216
406311
406413
406471
406569
406673
406730
406828
406937
406996
407089
407203
407264
407361
407470
407528
407623
407733
407793
407888
408010
408068
408164
408289
408349
408446
408568
408627
408722
408839
408900
408997
409110
409169
409266
409370
409427
409522
409632
409688
409785
409888
409947
410044
410150
410210
410305
410408
410468
410564
410667
410725
410822
410930
410991
411086
411204
411262
411359
411481
411540
411636
411762
411819
411913
412026
412085
412181
412291
412351
412447
412569
412628
412724
412847
412904
413000
413116
413178
413272
413376
413435
413531
413617
413676
413774
413853
413913
414009
414090
414152
414245
414331
414391
414487
414581
414640
414735
414851
414910
415005
415132
415191
415286
415415
415474
415570
415697
415755
415849
415969
416028
416123
416238
416295
416392
416506
416564
416659
416776
416833
416930
417044
417102
417195
417310
417369
417464
417573
417630
417727
417832
417894
417991
418103
418164
418259
418379
418437
418533
418661
418717
418814
418927
418987
419083
419196
419254
419350
419475
419534
419630
419766
419822
419919
420048
420105
420204
420330
420387
420483
420595
420653
420751
420864
420923
421018
421140
421199
421293
421413
421474
421570
421692
421752
421848
421964
422021
422117
422236
422294
422392
422519
422577
422672
422798
422855
422951
423078
423135
423230
423348
423404
423501
423619
423677
423774
423898
423957
424051
424182
424237
424335
424463
424523
424618
424753
424810
424906
425043
425102
425197
425328
425387
425482
425614
425672
425771
425895
425954
426050
426176
426233
426331
426452
426512
426607
426731
426789
426885
427001
427058
427154
427267
427325
427422
427541
427598
427695
427809
427867
427965
428083
428143
428239
428358
428414
428510
428626
428686
428780
428890
428949
429044
429153
429210
429307
429424
429484
429578
429708
429768
429861
429995
430053
430151
430273
430329
430425
430550
430605
430701
430830
430891
430986
431111
431168
431266
431378
431436
431532
431638
431697
431792
431909
431966
432063
432186
432246
432344
432464
432525
432620
432742
432801
432900
433002
433049
433145
433313
433369
433468
433576
433634
433731
433846
433906
434002
434119
434176
434274
434383
434447
434542
434651
434713
434808
434925
434986
435084
435208
435269
435366
435494
435553
435650
435767
435825
435922
436046
436104
436200
436320
436378
436476
436586
436646
436740
436847
436905
437000
437114
437173
437269
437389
437449
437544
437672
437730
437827
437943
438001
438098
438218
438276
438371
438492
438547
438645
438760
438817
438914
439027
439085
439179
439302
439357
439454
439579
439639
439736
439861
439918
440014
440137
440195
440292
440410
440468
440563
440688
440746
440844
440966
441024
441119
441236
441293
441389
441504
441561
441657
441765
441825
441920
442033
442092
442189
442308
442365
442464
442587
442647
442742
442861
442919
443017
443139
443199
443295
443437
443495
443590
443731
443790
443887
444015
444072
444167
444295
444352
444452
444572
444631
444726
444845
444905
445003
445116
445175
445271
445381
445439
445535
445642
445700
445796
445911
445968
446065
446182
446240
446335
446443
446501
446597
446700
446761
446857
446952
447013
447108
447197
447256
447350
447434
447492
447589
447677
447737
447832
447918
447981
448075
448173
448232
448326
448434
448493
448590
448689
448748
448844
448950
449009
449104
449279
449340
449438
449609
449668
449761
449925
449983
450079
450227
450282
450380
450520
450578
450672
450809
450864
450960
451088
451146
451243
451362
451421
451515
451633
451692
451788
451921
451981
452076
452211
452270
452366
452496
452556
452652
452779
452837
452932
453049
453106
453203
453300
453359
453453
453551
453610
453704
453807
453866
453964
454069
454128
454225
454337
454398
454492
454599
454656
454752
454861
454917
455014
455126
455184
455278
455383
455440
455538
455634
455692
455791
455886
455945
456041
456133
456193
456287
456379
456436
456533
456623
456681
456777
456879
456938
457030
457138
457197
457290
457396
457453
457552
457640
457696
457793
457871
457931
458024
458110
458169
458263
458354
458414
458507
458605
458664
458758
458864
458927
459021
459143
459204
459300
459420
459481
459579
459703
459762
459856
459990
460049
460144
460276
460337
460432
460570
460626
460722
460852
460909
461006
461125
461181
461277
461387
461443
461540
461645
461705
461802
461910
461969
462065
462178
462236
462333
462440
462500
462596
462719
462777
462873
463004
463063
463160
463289
463350
463445
463565
463623
463722
463842
463903
463997
464124
464183
464278
464402
464461
464558
464667
464726
464822
464931
464988
465084
465189
465249
465345
465452
465511
465607
465714
465772
465867
465976
466034
466130
466254
466315
466410
466541
466599
466697
466817
466877
466974
467095
467155
467250
467379
467439
467534
467664
467723
467818
467941
467999
468097
468217
468276
468372
468493
468551
468649
468764
468822
468920
469025
469083
469180
469289
469347
469442
469545
469604
469700
469800
469861
469957
470064
470124
470217
470334
470393
470489
470612
470672
470767
470896
470955
471061
471179
471238
471335
471467
471525
471620
471753
471811
471907
472028
472087
472183
472289
472349
472445
472554
472613
472710
472828
472888
472982
473102
473161
473257
473367
473426
473523
473633
473693
473789
473895
473953
474050
474151
474209
474306
474397
474458
474554
474651
474709
474804
474917
474976
475073
475200
475260
475356
475484
475543
475639
475777
475835
475932
476078
476135
476233
476374
476434
476531
476662
476719
476815
476955
477013
477109
477247
477304
477400
477528
477584
477680
477801
477860
477955
478064
478122
478217
478333
478391
478490
478612
478674
478771
478886
478945
479042
479158
479217
479314
479436
479494
479589
479706
479762
479860
479960
480021
480117
480217
480276
480370
480473
480532
480631
480733
480792
480889
480988
481048
481142
481247
481306
481404
481522
481581
481677
481798
481860
481954
482065
482124
482220
482314
482371
482468
482548
482609
482704
482785
482846
482941
483022
483084
483178
483268
483326
483423
483512
483573
483671
483761
483820
483915
484003
484061
484157
484250
484308
484404
484501
484558
484655
484747
484808
484903
485003
485061
485157
485257
485313
485411
485509
485567
485663
485761
485821
485917
486016
486074
486167
486275
486332
486428
486538
486598
486692
486806
486866
486960
487069
487127
487223
487338
487399
487494
487618
487675
487770
487891
487950
488045
488157
488218
488312
488420
488476
488573
488687
488746
488842
488960
489020
489114
489236
489295
489392
489518
489578
489671
489788
489845
489941
490055
490112
490210
490325
490385
490478
490597
490655
490750
490866
490924
491021
491121
491180
491276
491371
491430
491524
491623
491681
491779
491868
491928
492025
492102
492163
492258
492343
492403
492503
492590
492652
492747
492844
492904
493001
493120
493181
493276
493411
493471
493569
493713
493772
493869
494002
494058
494154
494267
494325
494421
494528
494586
494681
494799
494856
494951
495104
495164
495257
495408
495464
495561
495705
495763
495860
495996
496051
496149
496272
496329
496425
496535
496593
496688
496788
496845
496941
497035
497093
497192
497283
497343
497439
497540
497599
497694
497805
497863
497959
498077
498139
498234
498355
498414
498509
498620
498682
498779
498893
498953
499048
499164
499222
499318
499432
499490
499587
499700
499758
499854
499962
500018
500114
500223
500280
500376
500486
500545
500640
500752
500811
500909
501027
501085
501182
501298
501357
501452
501567
501627
501724
501838
501898
501994
502114
502172
502268
502377
502434
502532
502640
502700
502796
502913
502972
503067
503184
503242
503337
503442
503503
503596
503698
503758
503853
503958
504017
504114
504221
504280
504377
504486
504547
504642
504743
504802
504899
505004
505064
505160
505274
505334
505430
505545
505605
505701
505810
505869
505965
506084
506144
506239
506366
506423
506520
506646
506706
506801
506925
506982
507079
507205
507264
507361
507488
507546
507642
507762
507821
507918
508021
508081
508178
508285
508342
508437
508544
508602
508698
508802
508861
508957
509060
509119
509213
509321
509379
509477
509588
509649
509744
509866
509925
510019
510133
510192
510289
510405
510464
510558
510676
510735
510829
510945
511002
511098
511202
511261
511355
511474
511532
511626
511729
511788
511884
511981
512040
512138
512228
512290
512383
512484
512542
512638
512744
512803
512898
513010
513069
513164
513276
513334
513430
513541
513599
513694
513807
513868
513961
514078
514136
514230
514350
514407
514504
514616
514678
514772
514877
514935
515030
515129
515185
515281
515383
515443
515539
515662
515721
515816
515952
516012
516110
516244
516304
516398
516527
516584
516680
516800
516859
516954
517059
517116
517212
517299
517356
517453
517530
517588
517684
517763
517823
517918
518004
518066
518159
518252
518312
518407
518510
518567
518663
518772
518833
518928
519041
519102
519195
519301
519358
519456
519546
519607
519702
519797
519856
519952
520063
520121
520216
520371
520429
520525
520695
520755
520852
521002
521060
521156
521298
521353
521450
521582
521640
521734
521853
521909
522008
522107
522165
522260
522356
522416
522509
522609
522667
522761
522866
522922
523019
523122
523183
523277
523396
523455
523549
523685
523743
523839
523975
524035
524131
524262
524319
524417
524544
524603
524698
524824
524882
524979
525098
525157
525253
525365
525423
525518
525629
525686
525779
525891
525949
526045
526155
526213
526308
526418
526475
526571
526678
526737
526834
526945
527005
527099
527212
527271
527365
527472
527530
527626
527730
527791
527885
527991
528049
528142
528238
528295
528391
528491
528551
528647
528752
528812
528908
529014
529072
529168
529266
529326
529424
529521
529581
529676
529783
529840
529935
530037
530094
530191
530292
530352
530447
530544
530603
530698
530794
530853
530949
531047
531105
531203
531297
531356
531451
531542
531601
531695
531796
531856
531950
532053
532113
532209
532317
532378
532472
532577
532634
532728
532834
532890
532988
533086
533146
533239
533337
533398
533493
