157
211
306
395
453
547
629
687
777
863
924
1018
1102
1161
1252
1346
1399
1486
1579
1637
1731
1822
1879
1972
2052
2110
2201
2278
2336
2432
2510
2569
2660
2745
2800
2891
2966
3027
3120
3206
3262
3355
3446
3504
3599
3696
3749
3844
3936
3992
4082
4178
4235
4328
4422
4479
4572
4656
4716
4804
4897
4954
5045
5128
5188
5279
5365
5424
5517
5608
5664
5756
5849
5909
5997
6107
6165
6256
6364
6422
6517
6615
6673
6765
6865
6923
7017
7096
7159
7248
7325
7382
7476
7545
7607
7698
7765
7828
7921
7992
8051
8139
8247
8308
8398
8532
8593
8684
8810
8865
8961
9076
9135
9228
9347
9406
9499
9605
9662
9757
9846
9905
9999
10084
10143
10235
10309
10368
10457
10532
10592
10685
10763
10821
10914
11010
11069
11164
11264
11322
11411
11523
11581
11669
11783
11839
11933
12029
12087
12180
12274
12334
12423
12524
12580
12670
12760
12817
12913
12997
13055
13149
13237
13299
13392
13492
13549
13643
13736
13793
13887
13991
14048
14142
14241
14300
14393
14487
14544
14639
14717
14778
14872
14943
15001
15094
15157
15217
15310
15376
15434
15530
15602
15661
15748
15830
15894
15987
16088
16149
16239
16352
16409
16503
16598
16658
16752
16851
16912
17002
17106
17164
17254
17346
17403
17500
17584
17641
17736
17813
17872
17964
18032
18092
18183
18255
18312
18404
18482
18543
18633
18720
18778
18870
18960
19018
19111
19205
19263
19356
19456
19514
19608
19707
19760
19853
19933
19996
20088
20164
20221
20314
20382
20439
20530
20585
20644
20737
20778
20835
20929
20967
21025
21119
21167
21226
21319
21394
21455
21546
21647
21705
21795
21906
21964
22055
22153
22212
22304
22387
22447
22539
22616
22676
22768
22840
22899
22984
23060
23119
23209
23280
23339
23427
23506
23565
23655
23743
23800
23893
23987
24046
24135
24240
24299
24386
24497
24552
24646
24741
24800
24896
24985
25044
25134
25222
25281
25373
25455
25515
25604
25692
25752
25847
25938
25995
26090
26184
26243
26337
26438
26497
26589
26695
26750
26845
26934
26992
27087
27169
27228
27321
27401
27459
27551
27629
27685
27776
27850
27908
27997
28070
28129
28221
28298
28354
28444
28522
28580
28672
28764
28824
28913
29021
29082
29175
29273
29329
29420
29515
29575
29668
29767
29826
29917
29996
30058
30150
30222
30283
30376
30448
30505
30593
30670
30725
30819
30905
30962
31055
31168
31227
31321
31444
31498
31590
31707
31767
31858
31988
32047
32140
32260
32314
32408
32513
32572
32664
32753
32812
32906
32985
33041
33132
33216
33275
33368
33448
33510
33605
33695
33753
33846
33974
34033
34125
34248
34302
34397
34496
34551
34646
34731
34789
34880
34959
35019
35112
35186
35248
35341
35425
35482
35574
35661
35720
35812
35907
35963
36057
36172
36231
36323
36440
36497
36591
36694
36752
36848
36953
37012
37105
37199
37256
37349
37428
37486
37580
37664
37724
37816
37903
37964
38055
38148
38210
38298
38454
38511
38603
38735
38796
38883
38993
39051
39143
39242
39299
39394
39488
39546
39643
39724
39785
39877
39969
40030
40124
40220
40277
40373
40471
40530
40625
40728
40786
40876
40984
41038
41131
41222
41278
41372
41466
41524
41619
41715
41774
41865
41954
42012
42106
42197
42256
42353
42440
42496
42588
42672
42731
42823
42913
42976
43066
43165
43223
43315
43408
43465
43557
43640
43698
43795
43874
43932
44026
44111
44172
44265
44357
44415
44506
44613
44670
44763
44879
44935
45028
45125
45183
45276
45376
45432
45524
45620
45676
45765
45854
45911
46007
46088
46149
46243
46322
46381
46475
46549
46608
46698
46784
46842
46937
47025
47083
47177
47258
47319
47412
47496
47555
47648
47730
47788
47880
47958
48020
48111
48195
48253
48346
48431
48490
48584
48666
48726
48815
48892
48953
49045
49123
49183
49270
49350
49412
49508
49586
49645
49738
49825
49887
49980
50076
50135
50226
50317
50374
50465
50555
50615
50708
50788
50845
50938
51014
51071
51165
51240
51300
51393
51460
51524
51615
51695
51753
51847
51936
51994
52087
52174
52232
52326
52421
52480
52573
52672
52733
52827
52918
52976
53069
53149
53207
53301
53382
53440
53536
53610
53668
53763
53832
53892
53985
54058
54120
54214
54296
54357
54447
54532
54591
54687
54772
54829
54922
55007
55066
55158
55242
55303
55395
55471
55533
55627
55707
55766
55859
55939
55997
56091
56163
56221
56316
56391
56449
56541
56621
56680
56773
56850
56911
57002
57101
57154
57246
57330
57389
57482
57559
57617
57709
57784
57843
57937
58020
58080
58169
58269
58328
58418
58526
58583
58675
58789
58848
58941
59076
59132
59221
59355
59412
59503
59635
59693
59786
59904
59958
60054
60151
60206
60302
60386
60444
60540
60615
60674
60766
60837
60898
60989
61067
61127
61221
61307
61363
61457
61549
61609
61703
61803
61863
61956
62050
62108
62203
62293
62352
62448
62549
62606
62701
62799
62859
62952
63023
63083
63177
63232
63289
63385
63427
63486
63581
63621
63680
63772
63821
63880
63970
64034
64092
64184
64261
64322
64415
64507
64565
64660
64751
64810
64902
65005
65064
65156
65246
65304
65398
65476
65534
65628
65703
65763
65857
65924
65983
66077
66144
66204
66299
66371
66432
66521
66603
66666
66758
66848
66909
67000
67091
67149
67243
67339
67397
67491
67587
67645
67737
67826
67885
67976
68062
68119
68212
68289
68348
68442
68517
68576
68672
68752
68812
68905
68990
69049
69142
69230
69290
69382
69476
69533
69629
69715
69773
69868
69952
70013
70106
70189
70249
70342
70423
70481
70574
70647
70705
70799
70869
70926
71019
71086
71144
71237
71304
71363
71457
71521
71580
71675
71745
71806
71898
71974
72035
72128
72202
72264
72356
72430
72488
72579
72657
72714
72807
72882
72940
73033
73103
73163
73257
73322
73383
73476
73545
73606
73698
73770
73830
73924
73995
74053
74146
74219
74277
74369
74447
74507
74602
74687
74746
74839
74928
74988
75078
75171
75230
75322
75406
75464
75557
75628
75687
75781
75847
75905
75998
76058
76115
76209
76266
76325
76417
76483
76541
76636
76724
76786
76877
76992
77050
77142
77244
77301
77394
77502
77561
77655
77760
77821
77914
78002
78062
78154
78236
78295
78389
78468
78527
78622
78698
78759
78852
78925
78985
79077
79165
79223
79316
79422
79479
79573
79682
79740
79834
79936
79995
80086
80184
80243
80335
80428
80486
80581
80657
80716
80810
80889
80948
81042
81124
81184
81277
81368
81428
81521
81621
81679
81774
81880
81939
82033
82135
82194
82288
82371
82429
82523
82601
82659
82753
82824
82882
82976
83037
83097
83191
83254
83313
83406
83474
83534
83626
83701
83761
83854
83933
83991
84084
84171
84229
84322
84412
84470
84565
84647
84707
84801
84882
84942
85034
85115
85176
85269
85343
85402
85494
85564
85623
85715
85787
85845
85939
86007
86067
86162
86229
86286
86380
86443
86502
86597
86656
86715
86809
86875
86935
87026
87101
87161
87252
87318
87377
87470
87522
87578
87671
87710
87768
87860
87898
87958
88050
88088
88149
88241
88282
88341
88431
88482
88542
88632
88692
88753
88844
88911
88971
89061
89124
89182
89251
89330
89390
89466
89540
89599
89679
89751
89807
89896
89956
90017
90107
90170
90228
90322
90399
90456
90549
90640
90701
90793
90887
90947
91039
91139
91196
91287
91382
91439
91532
91617
91676
91770
91843
91903
91995
92067
92127
92219
92289
92348
92440
92510
92571
92664
92740
92799
92893
92986
93044
93136
93233
93293
93385
93484
93542
93635
93738
93796
93889
93992
94050
94144
94233
94293
94386
94461
94522
94613
94689
94748
94841
94913
94972
95062
95142
95201
95293
95382
95442
95535
95655
95714
95806
95922
95978
96070
96174
96233
96327
96430
96489
96581
96680
96738
96831
96914
96971
97064
97141
97201
97295
97380
97438
97532
97619
97679
97771
97851
97911
98004
98087
98146
98237
98321
98380
98474
98559
98617
98712
98790
98851
98943
99025
99085
99176
99264
99322
99414
99494
99553
99646
99720
99776
99869
99943
100002
100094
100171
100230
100322
100410
100470
100564
100648
100707
100800
100896
100953
101048
101144
101202
101294
101384
101444
101537
101620
101681
101773
101867
101924
102015
102112
102169
102263
102359
102418
102512
102610
102673
102767
102854
102914
103006
103094
103152
103246
103332
103389
103483
103557
103617
103712
103779
103839
103930
103998
104060
104153
104231
104291
104385
104470
104531
104625
104715
104773
104867
104961
105019
105114
105220
105280
105372
105483
105540
105635
105732
105790
105884
105988
106047
106139
106242
106301
106393
106489
106545
106638
106739
106796
106889
106994
107053
107145
107237
107298
107390
107484
107541
107635
107733
107791
107884
107975
108036
108128
108214
108274
108367
108451
108512
108606
108689
108748
108841
108931
108989
109084
109164
109222
109313
109385
109444
109536
109595
109653
109737
109792
109853
109944
109997
110057
110148
110221
110281
110371
110482
110540
110634
110768
110827
110915
111048
111104
111195
111306
111365
111459
111557
111616
111708
111800
111858
111951
112029
112088
112180
112258
112318
112413
112493
112553
112646
112736
112797
112889
112991
113049
113141
113258
113315
113409
113522
113582
113676
113783
113840
113932
114042
114100
114195
114298
114356
114449
114540
114602
114694
114781
114840
114932
115026
115083
115178
115266
115324
115419
115502
115560
115655
115721
115780
115868
115945
116000
116081
116199
116254
116341
116502
116558
116649
116796
116856
116942
117064
117123
117213
117306
117363
117450
117530
117588
117673
117746
117803
117891
117952
118013
118104
118166
118225
118315
118389
118449
118542
118628
118688
118781
118883
118941
119032
119137
119195
119290
119374
119433
119526
119590
119649
119742
119787
119847
119935
119980
120039
120131
120178
120236
120324
120383
120442
120532
120605
120663
120757
120834
120894
120990
121066
121126
121217
121290
121349
121436
121505
121564
121653
121717
121773
121863
121922
121984
122070
122141
122198
122287
122370
122427
122520
122616
122669
122760
122859
122915
123007
123098
123158
123247
123338
123398
123489
123589
123644
123736
123836
123891
123982
124072
124129
124216
124303
124364
124451
124539
124596
124688
124769
124825
124918
124995
125053
125147
125222
125279
125370
125450
125507
125597
125678
125739
125828
125916
125974
126064
126148
126209
126298
126380
126439
126532
126613
126671
126759
126842
126902
126994
127069
127130
127220
127296
127355
127447
127527
127584
127673
127748
127809
127898
127971
128030
128120
128196
128252
128340
128416
128472
128559
128633
128692
128780
128854
128913
129006
129072
129132
129222
129289
129348
129437
129503
129561
129650
129720
129783
129872
129955
130013
130104
130193
130250
130341
130434
130495
130586
130674
130736
130828
130913
130969
131055
131138
131195
131284
131363
131421
131504
131585
131643
131729
131804
131860
131950
132024
132081
132173
132255
132316
132405
132493
132550
132640
132727
132785
132872
132976
133028
133123
133208
133269
133361
133442
133503
133594
133674
133734
133823
133909
133969
134060
134137
134196
134288
134361
134421
134512
134589
134648
134740
134821
134884
134976
135065
135125
135212
135303
135362
135454
135536
135592
135682
135771
135830
135921
136003
136063
136153
136233
136292
136385
136468
136524
136613
136699
136755
136845
136923
136983
137077
137153
137210
137303
137380
137437
137529
137605
137665
137754
137827
137890
137983
138049
138112
138203
138279
138339
138430
138508
138566
138653
138736
138796
138883
138971
139025
139116
139203
139263
139354
139439
139500
139587
139675
139734
139825
139899
139955
140037
140123
140175
140265
140336
140391
140480
140550
140605
140694
140768
140829
140921
141009
141069
141157
141266
141323
141414
141516
141573
141662
141769
141823
141914
142015
142073
142164
142252
142312
142403
142484
142540
142632
142710
142767
142863
142932
142993
143088
143155
143213
143300
143365
143426
143519
143569
143628
143720
143773
143828
143916
143977
144036
144126
144200
144258
144350
144448
144506
144602
144698
144758
144847
144938
144999
145091
145178
145235
145323
145414
145472
145566
145651
145711
145804
145886
145945
146033
146125
146185
146277
146376
146434
146522
146625
146684
146773
146881
146936
147028
147143
147197
147288
147390
147451
147542
147635
147694
147781
147886
147942
148034
148128
148185
148278
148371
148428
148517
148613
148665
148757
148859
148916
149003
149116
149172
149266
149366
149425
149511
149638
149693
149783
149887
149947
150044
150123
150184
150280
150347
150405
150497
150560
150617
150706
150779
150840
150932
151033
151092
151179
151305
151359
151449
151571
151627
151720
151834
151891
151982
152092
152152
152245
152340
152397
152487
152586
152638
152732
152805
152866
152960
153029
153089
153176
153259
153314
153405
153482
153540
153633
153705
153767
153860
153945
154004
154096
154186
154243
154333
154418
154476
154568
154649
154706
154799
154881
154938
155029
155111
155167
155263
155330
155390
155477
155550
155609
155700
155766
155826
155918
155984
156045
156134
156207
156265
156353
156439
156495
156585
156695
156751
156841
156957
157015
157104
157208
157262
157350
157444
157502
157595
157678
157737
157830
157907
157967
158057
158140
158199
158290
158371
158437
158527
158628
158684
158777
158881
158938
159031
159131
159192
159285
159390
159447
159540
159643
159696
159789
159876
159936
160034
160121
160180
160273
160376
160433
160525
160637
160695
160787
160906
160967
161060
161181
161236
161329
161440
161496
161587
161690
161748
161845
161938
161994
162084
162164
162230
162324
162409
162467
162555
162650
162710
162802
162901
162959
163052
163150
163207
163294
163401
163458
163551
163653
163708
163805
163890
163953
164046
164135
164197
164288
164386
164443
164539
164630
164686
164782
164874
164935
165029
165129
165188
165277
165380
165434
165527
165609
165667
165763
165839
165897
165992
166069
166128
166221
166295
166362
166450
166541
166605
166700
166811
166866
166959
167070
167135
167227
167333
167392
167479
167590
167646
167740
167834
167896
167993
168073
168134
168228
168308
168369
168466
168540
168602
168698
168768
168832
168925
168994
169056
169147
169221
169282
169371
169462
169524
169617
169718
169776
169866
169968
170024
170117
170211
170269
170363
170458
170518
170612
170705
170762
170854
170935
170994
171081
171168
171225
171318
171402
171456
171556
171632
171693
171785
171864
171927
172020
172109
172171
172265
172364
172422
172514
172615
172673
172762
172864
172922
173005
173114
173170
173260
173355
173413
173507
173589
173648
173742
173824
173891
173984
174068
174128
174219
174311
174371
174462
174556
174615
174710
174793
174854
174944
175020
175079
175170
175225
175283
175379
175423
175481
175575
175622
175684
175771
175831
175891
175979
176042
176105
176191
176263
176322
176410
176475
176535
176628
176689
176750
176842
176902
176963
177056
177117
177176
177263
177345
177402
177494
177580
177638
177730
177823
177881
177974
178085
178138
178228
178320
178381
178473
178568
178627
178722
178811
178874
178965
179058
179118
179212
179307
179364
179453
179553
179613
179705
179804
179864
179954
180049
180109
180201
180301
180359
180451
180546
180607
180700
180787
180851
180944
181029
181088
181179
181272
181332
181424
181518
181579
181673
181767
181826
181920
182017
182075
182168
182261
182322
182415
182506
182563
182656
182735
182794
182889
182965
183023
183118
183186
183245
183334
183404
183466
183556
183630
183692
183784
183867
183929
184021
184122
184178
184272
184370
184428
184519
184614
184673
184765
184852
184916
185005
185094
185151
185248
185320
185380
185471
185551
185611
185704
185783
185845
185939
186019
186076
186169
186251
186310
186399
186480
186538
186632
186696
186753
186850
186893
186951
187044
187087
187148
187239
187293
187355
187448
187565
187622
187711
187859
187911
188006
188134
188186
188281
188384
188445
188536
188632
188687
188776
188852
188910
188997
189069
189123
189221
189277
189336
189425
189493
189553
189644
189735
189793
189884
190015
190077
190166
190288
190344
190437
190549
190605
190699
190794
190854
190943
191037
191097
191189
191271
191329
191420
191503
191563
191657
191737
191797
191893
191978
192035
192125
192214
192274
192364
192455
192514
192602
192695
192754
192849
192934
192995
193084
193168
193236
193329
193421
193481
193575
193669
193727
193820
193913
193972
194067
194169
194226
194310
194426
194483
194579
194677
194737
194829
194923
194987
195076
195173
195231
195323
195412
195465
195560
195640
195697
195794
195876
195934
196029
196115
196174
196264
196358
196417
196509
196613
196669
196760
196864
196925
197020
197113
197171
197260
197356
197418
197514
197602
197664
197758
197850
197904
197997
198082
198144
198237
198326
198385
198480
198562
198617
198708
198785
198842
198931
199011
199069
199162
199249
199308
199396
199494
199555
199649
199750
199808
199895
200012
200069
200161
200268
200324
200414
200507
200568
200656
200751
200815
200904
200993
201051
201142
201222
201277
201374
201457
201515
201607
201699
201760
201850
201945
202005
202093
202190
202250
202344
202442
202497
202586
202687
202742
202851
202926
202976
203076
203160
203216
203309
203389
203449
203546
203647
203683
203777
203865
203926
204014
204119
204180
204268
204381
204437
204528
204627
204683
204773
204874
204932
205023
205116
205175
205270
205354
205410
205507
205581
205642
205735
205813
205875
205968
206055
206111
206200
206278
206344
206429
206525
206588
206680
206778
206833
206925
207027
207087
207176
207286
207346
207437
207553
207605
207697
207811
207868
207960
208060
208118
208211
208297
208359
208455
208543
208601
208693
208783
208843
208933
209023
209080
209171
209255
209314
209402
209492
209547
209636
209717
209775
209866
209939
210000
210092
210181
210238
210329
210432
210489
210583
210695
210753
210847
210977
211035
211127
211247
211306
211399
211497
211562
211651
211752
211807
211898
212001
212057
212150
212243
212301
212395
212482
212539
212630
212733
212791
212882
212982
213038
213132
213230
213288
213375
213476
213534
213625
213733
213790
213883
213986
214042
214136
214235
214292
214383
214481
214537
214628
214732
214789
214883
214981
215039
215131
215232
215292
215380
215492
215551
215641
215773
215829
215905
