0.06442837
0.4400693
0.3032236
0.1754305
0.0961885
0.02198682
-0.01156473
-0.04683403
0.03307994
0.126531
0.07531413
-0.1018399
-0.2852279
-0.4007428
-0.4727959
-0.4701416
-0.3239575
-0.07956062
0.170984
0.325089
0.3324662
0.2848311
0.227866
0.06582364
-0.2278054
-0.4956315
-0.5922468
-0.4881856
-0.282461
-0.1433761
-0.1281811
-0.1771869
-0.180909
-0.1289995
-0.03119999
0.1586151
0.3428561
0.4287576
0.4053366
0.3005509
0.2069689
0.1415875
0.06073515
-0.03095301
-0.06968901
-0.03980226
0.04428294
0.1973016
0.3603568
0.4444998
0.435158
0.410091
0.380911
0.2457361
0.09093182
0.03501956
-0.09582186
-0.2763569
-0.2498958
-0.1155618
-0.08149201
-0.1861114
-0.3726775
-0.4558664
-0.3406405
-0.2227988
-0.2643148
-0.3535247
-0.3769202
-0.3224993
-0.2278722
-0.1667376
-0.1369801
-0.05206903
0.148723
0.401665
0.5509071
0.5395356
0.4522347
0.3506002
0.2791433
0.1909218
-0.03159568
-0.2239907
-0.2522053
-0.2614102
-0.2475031
-0.178055
-0.1172928
-0.06967738
-0.06315305
-0.05430178
0.01522031
0.1057801
0.1908562
0.1611629
-0.01409922
-0.1639573
-0.2451997
-0.2472072
-0.1132668
0.04557879
0.1261536
0.1631256
0.2004154
0.2636021
0.3287784
0.348386
0.3886147
0.4592701
0.4443074
0.3638148
0.2993703
0.1928683
-0.04801493
-0.3139306
-0.4458056
-0.5229779
-0.5981556
-0.5068614
-0.2992522
-0.2923614
-0.4655697
-0.4980715
-0.2843604
-0.01084776
0.1254867
0.1803602
0.2076136
0.1208165
0.01127946
-0.08127198
-0.2614246
-0.4108698
-0.3939018
-0.2698306
-0.1183924
0.1128802
0.3691654
0.4152033
0.2654972
0.1178107
0.02958445
-0.02886724
0.07691067
0.360621
0.5321832
0.5514786
0.4977967
0.4257361
0.4262823
0.3590441
0.2676914
0.2345159
0.06546079
-0.07494666
-0.06901771
-0.1786379
-0.2166952
0.03635602
0.2140783
0.1829445
0.1210813
-0.07079022
-0.3081768
-0.3342729
-0.2196587
-0.06702528
-0.05938949
-0.3303708
-0.6294225
-0.8590265
-1.159953
-1.49486
-1.7813
-1.875907
-1.408398
-0.4326453
0.4693927
1.039518
1.290379
1.27543
1.132386
0.9637952
0.9675869
1.127192
1.243904
1.289764
1.188226
0.9359261
0.614742
0.2879863
-0.0148823
-0.3797292
-0.7535441
-0.9907459
-1.084088
-1.003452
-0.670428
-0.2506691
0.05943593
0.2717899
0.3107119
0.1667726
0.02096499
-0.01983591
-0.02515328
-0.1079775
-0.1975617
-0.2380034
-0.3094384
-0.4376588
-0.542084
-0.6024444
-0.6997411
-0.8024225
-0.8430793
-0.8046047
-0.778984
-0.8394501
-0.829514
-0.5822212
-0.09476335
0.4747254
1.058254
1.653539
2.079579
2.267808
2.315702
2.23184
2.056385
1.804846
1.45042
1.051276
0.4316895
-0.4275901
-1.123363
-1.528884
-1.727325
-1.703108
-1.512795
-1.340054
-1.253401
-1.128668
-0.9559513
-0.8442727
-0.7989254
-0.7501194
-0.7525833
-0.8744809
-1.008879
-1.087935
-1.027546
-0.7376032
-0.2867062
0.2617182
0.7410425
1.055416
1.383474
1.759515
2.087706
2.35019
2.338295
1.851195
1.148163
0.4982377
-0.06505562
-0.4358535
-0.5387847
-0.4697652
-0.3936673
-0.3432437
-0.3086399
-0.2886372
-0.2715359
-0.3190942
-0.3792899
-0.4291782
-0.4067271
-0.2714954
-0.2414759
-0.2714419
-0.2449727
-0.2630077
-0.2722604
-0.206937
-0.1785202
-0.2190159
-0.2350453
-0.2067202
-0.1382223
-0.01208512
0.1588158
0.2970087
0.3558001
0.3478237
0.2515557
0.09303377
-0.1034161
-0.3068854
-0.417615
-0.3815224
-0.2140163
-0.007740837
0.1272725
0.1812811
0.1725228
0.1419912
0.1673781
0.2705941
0.4284518
0.5272644
0.5363899
0.5358346
0.4343203
0.1887308
-0.03321
-0.148066
-0.227772
-0.3426116
-0.5036669
-0.5830031
-0.5588769
-0.6025947
-0.6539819
-0.5629042
-0.3596218
-0.1622593
0.01599438
0.2465895
0.4730296
0.6420203
0.7175898
0.6706254
0.4997592
0.2121477
-0.05452001
-0.2099611
-0.2208241
-0.147489
-0.1453244
-0.06204388
0.1857456
0.3533973
0.3241163
0.1725537
0.09899758
0.1289704
0.0601019
-0.06061538
-0.1244568
-0.2642793
-0.5079703
-0.6461583
-0.5977873
-0.4957723
-0.3983153
-0.2216723
0.05681363
0.2982419
0.3312873
0.1619333
0.02768147
0.00661989
-0.0302153
-0.01328011
0.1352513
0.3104628
0.3727027
0.2793128
0.1431966
0.03956673
0.01528647
0.0979516
0.1751657
0.1846528
0.1336682
0.0687824
0.02763386
-0.02441294
-0.072009
-0.1152602
-0.1950514
-0.3198507
-0.32908
-0.128497
0.07215045
0.2030051
0.295276
0.221082
0.01763643
-0.1308191
-0.1835478
-0.1529404
-0.02235978
0.1126789
0.1085761
0.03795371
0.02745357
0.0534495
0.01854207
-0.1365717
-0.3643782
-0.5668226
-0.5127465
-0.1839913
0.1205026
0.3099685
0.3974206
0.3519936
0.1723385
-0.1074149
-0.381548
-0.4328195
-0.1647911
0.1659178
0.3863479
0.3976778
0.1271484
-0.2537617
-0.5955785
-0.6621507
-0.3812785
-0.03918782
0.2513603
0.497595
0.7215712
0.8879558
0.8634937
0.7379612
0.5756908
0.2618587
-0.1103927
-0.3469643
-0.4537487
-0.4940441
-0.4584828
-0.4242594
-0.3880847
-0.2574138
-0.1529227
0.04365664
0.3325052
0.2612664
0.003618384
-0.1023153
-0.2744206
-0.4886498
-0.5545784
-0.5968189
-0.5875685
-0.4727326
-0.3515089
-0.1639
0.04953022
0.2695377
0.4018081
0.3201053
0.2036932
0.1824827
0.4034855
0.8291354
1.096961
1.034684
0.8185917
0.6488453
0.513109
0.3495792
0.1152752
-0.1290693
-0.3056758
-0.372802
-0.4114023
-0.5836636
-0.7721991
-0.9504229
-1.147549
-1.085177
-0.7693934
-0.4424326
0.04583612
0.5712585
0.4198844
-0.5661545
-1.61579
-2.077079
-2.07727
-1.639667
-0.3746248
1.536799
3.253711
4.202955
4.486904
4.194399
3.345333
2.2397
0.9859322
-0.3976391
-1.624256
-2.251429
-2.143527
-1.724263
-1.45517
-1.510492
-1.821331
-2.083796
-2.060962
-1.979381
-1.812874
-1.2656
-0.723269
-0.3229468
0.3160711
0.8835777
0.9995219
0.999657
0.8633539
0.3757508
0.1110003
0.3805398
0.7436082
0.9696694
1.216336
1.479865
1.511658
1.340356
1.069946
0.5766118
-0.03666745
-0.3585006
-0.2486826
-0.2715662
-0.4856466
-0.2616247
0.0980207
0.2451718
0.1519002
-0.4079034
-0.7761119
-0.668452
-0.5691875
-0.3215944
-0.124814
-0.2161345
-0.2648607
-0.3916517
-0.6115153
-0.6392758
-0.6036033
-0.5610573
-0.2841645
0.07757817
0.3083963
0.5555764
0.6859473
0.4110059
-0.006327235
-0.1899149
-0.2136544
-0.06217166
0.3338929
0.5940561
0.6064765
0.5258477
0.2213679
-0.1932379
-0.4186172
-0.4827996
-0.4253
-0.1207155
0.2388662
0.3015767
0.1298913
-0.04686052
-0.1933211
-0.2952789
-0.1780838
0.118176
0.2795596
0.3458698
0.4438506
0.5505611
0.7631034
0.8182536
0.3934292
-0.220016
-0.5259706
-0.4800814
-0.4310541
-0.469835
-0.5395725
-0.6226188
-0.662668
-0.6094103
-0.3570413
-0.04994402
0.1611399
0.3616688
0.4007866
0.2256487
0.1268347
0.1099068
0.08453739
0.1008581
0.01934848
-0.1090203
-0.09265751
-0.001898932
0.1247216
0.2204562
0.2395231
0.3638047
0.4875017
0.3464402
0.04414838
-0.1824325
-0.2270749
-0.1414548
-0.05898828
-0.0653581
-0.0962974
-0.1092118
-0.06589504
0.08306327
0.1105541
-0.003324868
-0.1199737
-0.3469103
-0.520791
-0.4969482
-0.3426321
-0.1693131
-0.2540942
-0.310777
-0.0580851
0.07791813
0.05686366
0.1583573
0.4111953
0.6204454
0.638794
0.5900643
0.4432415
0.2416046
0.1995012
0.1789561
-0.019534
-0.2786774
-0.5094756
-0.6404771
-0.5451701
-0.3632377
0.01440467
0.5712311
0.779555
0.6660231
0.519688
0.2047355
-0.2488677
-0.263993
0.06537952
0.005226078
-0.1750726
-0.1035287
-0.04557289
-0.05189598
-0.1718518
-0.3617508
-0.3849637
-0.3696913
-0.4038782
-0.4590068
-0.6198491
-0.6364025
-0.3874722
-0.08907694
0.2313787
0.5679269
0.6798456
0.5367265
0.4897618
0.5991557
0.7587774
0.7071134
0.2590208
-0.1134064
-0.4388405
-0.8978838
-0.9308234
-0.7169172
-0.6794624
-0.3185908
0.1734376
0.2099443
0.301764
0.6494568
0.8229492
0.9107957
0.7824028
0.1708404
-0.4404745
-0.6285932
-0.3833204
0.04097658
0.4059916
0.4975476
-0.07631763
-0.6953917
-0.6981953
-0.4951135
-0.059981
0.5884047
0.6779741
0.1340219
-0.2988226
-0.5096733
-0.8137274
-0.9115758
-0.4998519
-0.01786039
0.0452233
0.05242486
0.4336797
0.6877497
0.6463053
0.6595676
0.5150281
0.157326
-0.1590446
-0.2867315
-0.2393168
-0.2595412
-0.2213174
0.1250672
0.3652196
0.2189145
0.08830157
0.1100371
0.06675283
-0.04073943
-0.171994
-0.3236678
-0.1897622
0.3079723
0.533859
0.2715285
0.0003575893
-0.07018037
-0.1361164
-0.3351147
-0.4428542
-0.3889363
-0.2840445
-0.1559135
-0.1567794
-0.1433103
-0.0853605
-0.229814
-0.3743972
-0.2937516
0.005573366
0.3441262
0.4485124
0.4576673
0.5127995
0.439531
0.2808687
0.1225509
-0.1021588
-0.2304541
-0.09240444
0.03854247
-0.05550018
-0.1219139
-0.06040578
-0.1363327
-0.2745007
-0.1309761
0.17664
0.372843
0.4431129
0.4994176
0.5989692
0.5782147
0.3337574
-0.02537082
-0.2712428
-0.3416415
-0.4883347
-0.6460437
-0.6012276
-0.4250032
-0.2334026
-0.1962869
-0.2613124
-0.2595545
-0.2356124
-0.2064563
-0.2106679
-0.160907
0.08900167
0.3297102
0.4571078
0.5432938
0.515161
0.4644438
0.4810336
0.3760584
0.11473
-0.07379961
-0.1288649
-0.1656483
-0.1872162
-0.09278864
-0.00571533
-0.1323829
-0.2641059
-0.2656871
-0.313433
-0.5083746
-0.7812393
-1.330117
-2.551718
-3.108698
-1.508174
1.209473
3.527815
4.637658
4.281384
2.92971
1.350371
0.06301116
-0.8543873
-1.230968
-1.049651
-0.648354
-0.3825979
-0.3549721
-0.2979066
-0.3195787
-0.6883029
-1.045778
-1.025958
-0.8596959
-0.870913
-0.930198
-0.7699142
-0.4349084
-0.1849854
-0.0646086
0.08721019
0.2680903
0.2807619
0.1928671
0.3281938
0.5834705
0.767018
0.8696485
0.8101347
0.6414522
0.4494599
0.3084084
0.2062648
0.1192304
0.2142702
0.3772967
0.2891137
0.02473834
-0.1186324
-0.2340366
-0.5123635
-0.7091641
-0.7033054
-0.563499
-0.320347
-0.1712629
-0.1644457
-0.18436
-0.1935972
-0.150135
-0.04084003
0.00151649
-0.08632987
-0.2348023
-0.3796527
-0.2598659
0.1077968
0.3695468
0.5310069
0.7047121
0.913611
0.9321978
0.6042992
0.3430908
0.2586189
0.1919503
0.153302
0.1128742
0.04385216
-0.2699243
-0.6901405
-0.7834721
-0.6873838
-0.6401959
-0.5378887
-0.3564547
-0.3121407
-0.3830239
-0.3238159
-0.2818801
-0.3855676
-0.225338
0.2740436
0.6719123
0.8068546
0.7490029
0.6707814
0.7016314
0.5951671
0.2916221
0.1059151
-0.02116321
-0.1784724
-0.09131559
0.024244
-0.3300883
-0.7311418
-0.6511428
-0.4563826
-0.314265
-0.05812437
0.1417927
0.1440036
0.01356865
-0.2696707
-0.5288274
-0.4313973
-0.1822988
-0.03141697
0.06946725
0.174055
0.2775391
0.2596897
0.2587535
0.3196303
0.410376
0.5751583
0.4543031
0.1136394
-0.06347441
0.03213231
0.212613
0.1263878
0.166793
0.3443796
0.1134989
-0.1370887
-0.1271856
-7.13231e-05
0.107957
-0.05953467
-0.2182724
-0.1476739
-0.2244238
-0.5384959
-0.7796215
-0.8714622
-0.8365623
-0.4624715
0.1295967
0.5857272
0.584967
0.1884575
0.03758862
0.06620547
0.06264579
0.198491
0.1713637
0.0596494
0.05394505
0.01607746
0.1246585
0.3531819
0.4411129
0.3021507
0.07621413
-0.1168229
-0.3068579
-0.3812007
-0.4541866
-0.6299352
-0.577493
-0.3092129
-0.1943022
-0.1663027
0.00909866
0.2583813
0.5120536
0.7007595
0.7136166
0.6765692
0.7663675
0.7781016
0.5470074
0.3314409
0.06410442
-0.2715023
-0.3309801
-0.1613559
0.1003605
0.3073301
0.2964729
0.2094741
0.1781387
0.1533171
0.06566443
-0.2298629
-0.7734373
-1.245348
-1.627327
-2.084976
-2.326593
-2.205853
-1.724031
-0.8989055
-0.1282762
0.3695837
0.7056559
0.9152174
1.067594
1.255513
1.439669
1.534902
1.655184
1.822544
1.831068
1.684363
1.391116
1.006186
0.6511025
0.2240689
-0.2479157
-0.6362519
-0.8853477
-1.063191
-1.275874
-1.387618
-1.342431
-1.226466
-1.045697
-0.8219329
-0.602493
-0.455856
-0.397558
-0.3486103
-0.2328107
-0.03689492
0.1134785
0.1530585
0.2738043
0.4674449
0.5202172
0.5717214
0.7779375
0.9303708
0.913891
0.778084
0.4672117
0.07861837
-0.2879232
-0.6425707
-0.8040709
-0.8645548
-0.9282631
-0.8067717
-0.6388574
-0.4560782
-0.09103494
0.4119038
1.053985
1.767934
2.266036
2.267632
1.804275
1.145953
0.3606158
-0.5077109
-1.068501
-1.200431
-1.198193
-1.172171
-1.065633
-0.7752832
-0.4778219
-0.4847139
-0.6212096
-0.5952727
-0.5976062
-0.7105622
-0.6092819
-0.4685224
-0.4739798
-0.4180487
-0.4067153
-0.3928466
-0.1212334
0.290206
0.5982737
0.7930192
0.9693201
1.100292
1.127264
1.045121
0.8779951
0.6749195
0.5060449
0.3753684
0.2047994
0.06783637
0.03922821
0.02200827
0.02433273
0.0510276
-0.007935339
-0.09681914
-0.1073105
-0.1052568
-0.1518582
-0.2693341
-0.4332818
-0.5472895
-0.6020443
-0.6167871
-0.6528168
-0.6598606
-0.7477177
-0.9855388
-1.383152
-2.16639
-1.714876
0.6385324
2.52609
3.221265
3.061398
2.05017
0.7583482
-0.4282891
-1.071835
-1.067955
-0.7407665
-0.3121991
0.06099165
0.3308652
0.3975049
0.2372178
0.01982632
-0.1349685
-0.231388
-0.3000172
-0.3238887
-0.3205923
-0.3257909
-0.3094834
-0.327975
-0.4181198
-0.4257056
-0.3287482
-0.1425345
0.1511505
0.39501
0.6386992
0.6793961
0.4442825
0.4773121
0.495776
0.1833998
-0.0736322
-0.2070547
-0.2311368
-0.1164712
0.02302596
0.05400431
0.002101294
-0.04153839
-0.07748357
-0.1173513
-0.166493
-0.1165296
-0.005065219
-0.02404501
-0.1585205
-0.3181941
-0.4439487
-0.5203987
-0.5545028
-0.5322754
-0.4040351
-0.1301416
0.1892911
0.4377044
0.5783827
0.6291609
0.6082394
0.5410204
0.5125747
0.4763463
0.3322303
0.08638307
-0.2141635
-0.4489639
-0.5021051
-0.3483979
-0.0943841
0.1139146
0.2143985
0.2005903
0.1137234
-0.04210606
-0.2082545
-0.2282843
-0.1778259
-0.2006031
-0.1812517
-0.132523
-0.1617614
-0.1401984
-0.04077372
0.05408503
0.1589266
0.2507754
0.3001325
0.3212839
0.3308182
0.3315079
0.3185201
0.2596177
0.1003104
-0.1091503
-0.2885244
-0.4149462
-0.4533211
-0.4493661
-0.396826
-0.2323052
-0.06033994
0.07283622
0.1783958
0.2010939
0.1379799
0.02282027
-0.08918031
-0.172071
-0.2232055
-0.1533983
0.09026267
0.2819814
0.2257071
0.063715
-0.09497982
-0.2011246
-0.1557329
-0.02658141
0.130844
0.3258297
0.491676
0.5801973
0.543129
0.4038869
0.2291915
0.05046982
-0.06053366
-0.1453627
-0.2547925
-0.3670091
-0.4889864
-0.5361076
-0.5128085
-0.5142655
-0.4850892
-0.3566083
-0.2022784
-0.1391248
-0.1390598
-0.1111867
-0.004432324
0.1461335
0.2073353
0.1999006
0.2504897
0.4322059
0.6527592
0.7287999
0.6557802
0.4139682
0.06001895
-0.1773539
-0.2160396
-0.08310726
0.1246191
0.2298365
0.1588517
-0.01905943
-0.1825914
-0.2486172
-0.2347805
-0.1858179
-0.1565448
-0.1381242
-0.09105308
-0.08823823
-0.1290704
-0.1826339
-0.2855532
-0.3592051
-0.3395573
-0.2765182
-0.1702742
-0.04333266
0.07233675
0.2466451
0.4574819
0.5381806
0.4426406
0.2936015
0.1762851
0.1143798
0.05026947
-0.1577193
-0.4755421
-0.6211943
-0.4562266
-0.05262287
0.3963448
0.4424095
-0.05898243
-0.8447555
-1.546652
-1.818403
-1.798522
-1.443751
-0.3750369
1.205584
2.766062
3.869601
4.215117
3.73593
2.640664
1.292919
0.02250197
-0.918081
-1.409518
-1.444396
-1.178512
-0.9722123
-1.054592
-1.367592
-1.739876
-2.030829
-2.18759
-2.146578
-1.866587
-1.411776
-0.8729002
-0.3576152
0.09829941
0.5343441
0.8495172
0.9695505
1.03138
1.090258
1.20073
1.399687
1.52337
1.560014
1.467994
1.126272
0.6083834
0.0651159
-0.295026
-0.4836435
-0.6630442
-0.8017777
-0.8016096
-0.6134214
-0.31025
-0.02077039
0.2075423
0.3550415
0.4063441
0.3699594
0.240243
0.0215034
-0.228597
-0.4114855
-0.4134272
-0.3009231
-0.2187235
-0.1590437
-0.1630871
-0.241068
-0.3184547
-0.3572206
-0.2938548
-0.171805
-0.05761399
0.06340446
0.1778315
0.252401
0.2468694
0.2390763
0.2409409
0.1679845
0.1241161
0.09504665
0.03764181
0.04788821
0.02937767
-0.05005657
-0.1013979
-0.1427461
-0.1824443
-0.2369681
-0.2793161
-0.2343444
-0.05964124
0.2200016
0.4453272
0.503885
0.4227236
0.2488907
0.04066136
-0.1685164
-0.3528617
-0.4368002
-0.447658
-0.4260188
-0.2919309
-0.0987573
0.08874237
0.3000809
0.4036568
0.3241569
0.1727786
0.06896295
0.0639149
0.1133434
0.1605699
0.1827904
0.1842964
0.1270614
0.0137997
-0.05418589
-0.07946932
-0.1225622
-0.1648122
-0.1779711
-0.1341393
-0.06547273
-0.04938145
-0.04009625
-0.0104219
0.04067737
0.1984889
0.3572365
0.3151715
0.09781495
-0.153776
-0.3237027
-0.417628
-0.4651951
-0.3896047
-0.2355787
-0.0976058
0.04998108
0.1353823
0.09291363
0.05441546
0.07433667
0.09215018
0.09204135
0.03288515
-0.1582941
-0.4123734
-0.3936506
0.03711825
0.5886508
1.001565
1.05519
0.6515958
0.05847006
-0.4524884
-0.763316
-0.7751837
-0.5520049
-0.2941841
-0.02006629
0.2745607
0.4728207
0.5632675
0.5153501
0.3237817
0.137753
0.02368298
-0.02942949
-0.04572246
-0.09688789
-0.1661099
-0.2596861
-0.3951257
-0.4194491
-0.3165058
-0.1809425
-0.03213326
0.06696765
0.1135625
0.1128922
0.03570087
-0.04889714
-0.07948385
-0.1338323
-0.2559944
-0.3213312
-0.3015488
-0.2611474
-0.2022037
-0.1431519
-0.07867654
0.002643616
0.07519652
0.148449
0.2694449
0.3655521
0.3271785
0.2232109
0.2073219
0.279006
0.2866838
0.2318672
0.1823651
0.1300197
0.06314028
-0.02190135
-0.04828338
-0.01051407
0.02822605
0.1145352
0.3245478
0.6038826
0.8015311
0.8484491
0.7031306
0.3236483
-0.1555649
-0.5497278
-0.8453492
-1.021863
-1.059332
-1.03099
-0.9212347
-0.7129079
-0.4546082
-0.2208947
-0.07921334
0.01103146
0.06922435
0.03745135
-0.03954804
-0.0455183
0.007862628
0.07005423
0.1931111
0.36653
0.4681239
0.4401175
0.3227317
0.2431949
0.2951077
0.420603
0.5244399
0.4807762
0.2884385
0.09850466
-0.0816187
-0.2944983
-0.4346303
-0.3811547
-0.2007977
-0.04492747
0.03696685
0.06647431
0.05557115
0.02054685
0.05789795
0.1565743
0.1760583
0.167012
0.1489965
0.04912718
-0.08493241
-0.2335303
-0.269585
-0.1663392
-0.1327866
-0.1743949
-0.1833411
-0.1514748
-0.1239705
-0.1408672
-0.1873273
-0.1756325
-0.09628011
-0.07444504
-0.0675939
0.03201921
0.1381274
0.189328
0.1856447
0.1417456
0.1108246
0.07923296
0.09558129
0.1637711
0.1628909
0.1070096
0.05640279
0.08222437
0.1710223
0.1688414
0.03834546
-0.1556483
-0.2895078
-0.3177487
-0.302005
-0.2405878
-0.1577199
-0.07668396
-0.04795698
-0.1152662
-0.1526393
-0.1115301
-0.06772811
-0.02546528
0.03213783
0.1193434
0.254509
0.4154028
0.5419821
0.5643556
0.4773937
0.3923135
0.3281823
0.2284568
0.1675653
0.1117022
-0.06271701
-0.3249694
-0.5387536
-0.643764
-0.6367573
-0.4595336
-0.2722619
-0.1894024
-0.086314
-0.01328417
0.001229461
0.0375839
0.1028069
0.160869
0.1721979
0.1536003
0.1072594
0.07212231
0.08796126
0.07038527
0.03228438
0.06142539
0.08980145
0.06992026
0.02221817
-0.1092343
-0.2752371
-0.3915058
-0.4655369
-0.4705168
-0.3971674
-0.2311746
0.007328424
0.2155103
0.3061638
0.2577623
0.1143507
-0.07021163
-0.1769018
-0.1679424
-0.1112022
0.07096998
0.36533
0.6634758
0.9267758
1.054654
1.024875
0.8534277
0.5453908
0.2185166
0.001852095
-0.1115427
-0.2873799
-0.5899719
-0.9170829
-1.092026
-1.039683
-0.9121495
-0.6793696
-0.3154248
-0.02293724
0.1402139
0.1801786
0.09916823
-0.04812036
-0.1486205
-0.1103092
0.03061652
0.2162942
0.3420135
0.323702
0.2376576
0.1771331
0.1129372
0.005522077
-0.06706617
-0.01939646
0.09162995
0.130383
0.1416272
0.2514637
0.3343322
0.2838835
0.1799131
0.06159268
-0.04418182
-0.1621244
-0.3268993
-0.4743397
-0.5535685
-0.5571507
-0.4948678
-0.3667148
-0.1847396
0.03807414
0.2906755
0.4919369
0.5846691
0.5861045
0.5154917
0.365158
0.2097981
0.1474613
0.1212666
0.1137285
0.1620306
0.2018914
0.1336129
-0.1333216
-0.5829259
-0.9460945
-0.790239
-0.08701269
0.6197084
0.9307649
0.7635787
0.2241848
-0.3845484
-0.864929
-1.097687
-1.12284
-0.9905998
-0.6314523
-0.2349983
0.1670494
0.6439961
0.9121391
0.8953577
0.8110198
0.7145348
0.5607627
0.360117
0.1327649
-0.07847907
-0.2095845
-0.2668927
-0.2980635
-0.3102766
-0.2893127
-0.2316454
-0.171175
-0.1535445
-0.1395278
-0.1088482
-0.110858
-0.1626441
-0.2291816
-0.1949275
-0.07748242
0.01474185
0.112298
0.1677352
0.1875578
0.2517079
0.2763861
0.3053756
0.3860343
0.4168607
0.409523
0.3560088
0.2239408
0.05493796
-0.1311241
-0.285124
-0.3658625
-0.4106556
-0.4262923
-0.3976267
-0.3883074
-0.4113089
-0.3663629
-0.2342288
-0.07405286
0.05425674
0.1079938
0.09623497
0.0177197
-0.1161509
-0.2467535
-0.2755847
-0.1799095
-0.06763437
0.04629093
0.2131697
0.3764879
0.5026332
0.570775
0.5221597
0.4651812
0.4465703
0.4018534
0.3588359
0.2847099
0.232988
0.1786322
-0.006700568
-0.1328227
-0.06341227
0.08309151
0.2045286
0.24025
0.2984629
0.4538591
0.4804761
0.2777005
0.006493621
-0.2026005
-0.3173341
-0.4163527
-0.6273341
-1.016702
-1.538151
-1.999204
-2.209021
-2.217805
-2.080743
-1.66334
-0.9800132
-0.2344939
0.4181896
0.9022689
1.181868
1.328925
1.465886
1.665302
1.981935
2.298158
2.412463
2.289624
2.056795
1.852499
1.60235
1.256464
0.8594464
0.3210651
-0.3275186
-0.9566808
-1.509835
-1.922683
-2.185107
-2.331399
-2.407025
-2.420043
-2.294655
-2.034295
-1.712825
-1.293642
-0.8405294
-0.500139
-0.2375861
-0.03862643
0.1513425
0.4707736
0.8449261
1.092086
1.209557
1.324982
1.460888
1.546837
1.584674
1.650421
1.772532
1.951315
2.177765
2.319748
2.180928
1.67998
0.8636879
-0.1848258
-1.321903
-2.316297
-2.93026
-3.100724
-3.025743
-2.868982
-2.634816
-2.299586
-1.79973
-1.138812
-0.3355803
0.574612
1.401973
2.028017
2.374553
2.328635
1.93693
1.330737
0.6678635
0.07756341
-0.366551
-0.5728781
-0.5396573
-0.2744609
0.1340347
0.4213861
0.4429259
0.2648622
0.005948803
-0.3367116
-0.6856099
-0.8810314
-0.9794961
-1.012191
-0.9440798
-0.8139524
-0.5199531
-0.02362906
0.4576091
0.8455747
1.134081
1.206782
1.068153
0.8271917
0.5847316
0.3735164
0.1701762
-0.04446426
-0.2604743
-0.4099616
-0.4724081
-0.4811594
-0.4447252
-0.3763742
-0.2855442
-0.2006316
-0.1355917
-0.03562727
0.08730645
0.1164966
0.07094318
0.06213893
0.07124607
0.07749051
0.03346404
-0.07157883
-0.1165447
-0.08759735
-0.004398669
0.1208522
0.229207
0.2914332
0.2633439
0.1407878
-0.06626041
-0.3208853
-0.4544935
-0.4319669
-0.3227839
-0.1616313
-0.03953096
0.00166889
-0.07863748
-0.214332
-0.384129
-0.5255309
-0.3521722
-0.008407346
0.2770827
0.5700963
0.7543635
0.6846588
0.4595609
0.2350376
0.09695317
0.08117405
0.1227964
0.1499966
0.1357381
0.1211705
0.1802759
0.2340879
0.1689623
-0.0009459645
-0.2449429
-0.457045
-0.4891072
-0.3806465
-0.196335
0.01449314
0.1500622
0.1967914
0.2024958
0.1888303
0.1424325
0.08365645
0.005259484
-0.1106511
-0.2139323
-0.2743284
-0.3064109
-0.3320933
-0.3067265
-0.2775246
-0.2873449
-0.2695317
-0.2605004
-0.2150266
-0.0941462
0.04239913
0.1531994
0.2812064
0.5955809
0.9414693
0.9359581
0.5252336
-0.04520926
-0.5102953
-0.749224
-0.7177187
-0.4018172
0.0214715
0.3687918
0.6523942
0.7974098
0.7485414
0.5298321
0.1401662
-0.2795828
-0.6187802
-0.8024443
-0.8296704
-0.7851396
-0.6105381
-0.3349454
-0.07840647
0.1157026
0.2373422
0.3125451
0.3424946
0.3278666
0.3453502
0.4037941
0.3733142
0.2255334
0.07139926
-0.009930993
-0.03984628
-0.0636491
-0.06376008
-0.03750703
-0.002155247
0.05753127
0.11836
0.1407699
0.1448378
0.09849275
-0.03272685
-0.1184333
-0.08674074
-0.08404222
-0.1060353
-0.03024947
0.03008074
0.02098188
-0.03783821
-0.1691746
-0.2721961
-0.3618871
-0.4531886
-0.4484679
-0.402269
-0.3879451
-0.3845193
-0.3276308
-0.1416986
0.08449619
0.1921877
0.2605959
0.3494508
0.4231603
0.5330061
0.583998
0.5398961
0.5026999
0.4756955
0.4322432
0.3101048
0.1253393
-0.04008489
-0.173363
-0.2481397
-0.2360971
-0.2007923
-0.2175693
-0.2939065
-0.4219307
-0.548135
-0.6326088
-0.6146832
-0.4214766
-0.1984752
-0.04707374
0.1480713
0.3236099
0.3359408
0.2957883
0.2961603
0.3075331
0.2969718
0.2431911
0.239171
0.281472
0.3041175
0.3325514
0.3415493
0.3886614
0.4689516
0.4503576
0.3566286
0.2202174
0.07120512
-0.003166762
-0.05455597
-0.1273906
-0.2365651
-0.4722815
-0.7407275
-0.926061
-1.05155
-1.083933
-1.015725
-1.057295
-1.457542
-1.708392
-1.132119
-0.07098921
0.9596079
1.732746
1.911614
1.35161
0.1908658
-1.269385
-2.486036
-2.703077
-1.499586
0.6682254
2.917798
4.508841
5.033215
4.599658
3.505472
2.045189
0.6450991
-0.4514855
-1.180686
-1.493204
-1.519898
-1.4085
-1.310298
-1.480232
-1.909998
-2.409181
-2.86759
-3.039024
-2.763258
-2.09688
-1.214579
-0.4566912
0.0978882
0.5108901
0.7156096
0.8126842
0.929062
1.068267
1.27601
1.588489
1.880108
2.016456
1.937387
1.635707
1.191555
0.7077836
0.3617804
0.2131094
0.1336752
0.07497402
-0.02551674
-0.2023372
-0.4520732
-0.8097407
-1.103223
-1.166786
-1.058872
-0.8631715
-0.6219112
-0.4120064
-0.2910878
-0.1541704
0.02108103
0.1486637
0.2468207
0.265401
0.1442501
-0.019486
-0.1466444
-0.2942089
-0.4708346
-0.5545941
-0.5210146
-0.4278941
-0.2694949
-0.1318975
-0.07424501
-0.01842215
0.04767652
0.1507276
0.3121561
0.4633481
0.5427907
0.5979779
0.7031097
0.7810202
0.7480096
0.6167241
0.4087431
0.1366752
-0.09900978
-0.2112682
-0.2363141
-0.1975962
-0.1049231
0.04462587
0.1929439
0.2626362
0.2657949
0.1836392
0.04055806
-0.1234887
-0.2874542
-0.3780519
-0.4445122
-0.5283067
-0.5068275
-0.3790337
-0.2559593
-0.1488847
-0.05045173
-0.02702712
-0.1662484
-0.3518755
-0.3613864
-0.2209482
-0.06569383
0.048931
0.09983076
0.09535446
0.07108568
0.04054686
0.03403599
0.1258121
0.2837209
0.3674076
0.359275
0.3413019
0.2923353
0.1818247
0.09824622
0.1112836
0.1498263
0.1795774
0.2128973
0.1498818
-0.02607217
-0.1720535
-0.245873
-0.3248871
-0.3375204
-0.3009677
-0.3650354
-0.4032802
-0.3709531
-0.369275
-0.3328485
-0.1906357
0.03550703
0.2021698
0.3133066
0.4810213
0.6196513
0.6745013
0.6563201
0.5707264
0.423227
0.2451457
0.1140843
0.03197166
-0.02848619
-0.1184528
-0.2354738
-0.3113235
-0.3625255
-0.4213083
-0.4674277
-0.4680619
-0.4220845
-0.3503811
-0.2638845
-0.155231
-0.04120075
0.05104938
0.09518904
0.1002299
0.1160214
0.1085558
0.06127923
0.02694998
0.05346256
0.09608442
0.06603303
0.02404117
0.02823682
0.04745302
0.06228034
0.07736115
0.1445646
0.2822379
0.4067254
0.4697698
0.4934949
0.458933
0.3062801
0.01633752
-0.3311173
-0.615524
-0.7954359
-0.8769572
-0.8085344
-0.5909057
-0.3088993
-0.03271906
0.2120952
0.4644539
0.6703442
0.6935416
0.5625663
0.4065552
0.2262623
0.02677072
-0.1615435
-0.4779846
-0.8484894
-1.010623
-0.8653848
-0.3182624
0.4214114
0.9424902
1.209667
1.196023
0.7812189
0.2006537
-0.3076947
-0.7234095
-0.9085869
-0.814522
-0.5716836
-0.2225457
0.204729
0.5949134
0.7798612
0.7175295
0.5424492
0.3139904
0.0329187
-0.217758
-0.3549728
-0.4215859
-0.4930158
-0.4905402
-0.3534274
-0.1970333
-0.1337777
-0.1224352
-0.06085388
0.04598643
0.1413703
0.2051546
0.199408
0.1212697
0.03605925
-0.04850696
-0.1023169
-0.09237903
-0.1056636
-0.1287164
-0.09962679
-0.003775114
0.1475771
0.1873605
0.1203642
0.1319468
0.1776663
0.1688007
0.08356128
-0.04941602
-0.09507696
-0.05658092
0.03143727
0.1721418
0.2358959
0.2094639
0.14821
0.05573237
-0.02417361
-0.1177197
-0.1936664
-0.1518487
-0.05347151
0.0245535
0.1039994
0.1895148
0.2329285
0.1689525
0.07186292
0.05114768
0.05506429
0.02321699
-0.0727506
-0.2744577
-0.5463484
-0.7422542
-0.8016483
-0.8186333
-0.7240191
-0.4104688
-0.07622738
0.193443
0.5354478
0.8550225
0.9925295
0.8691057
0.4778654
0.05067635
-0.2159209
-0.3384956
-0.3571507
-0.2784508
-0.1062937
0.098387
0.2424915
0.3194335
0.3605172
0.3663686
0.3382911
0.2576687
0.1323632
-0.02643975
-0.1664207
-0.1849197
-0.1138087
-0.0112819
0.07915496
0.1175554
0.1054615
0.0005704306
-0.1763143
-0.3628806
-0.5250995
-0.6127762
-0.6291175
-0.5520171
-0.3822012
-0.2553563
-0.1798168
-0.106326
-0.02489089
0.1309891
0.3033278
0.4182703
0.4981737
0.5420032
0.4914152
0.3426255
0.2444355
0.219385
0.1473568
0.06119867
0.02544107
0.02771289
0.03833339
0.03690781
0.02589455
-0.01279246
-0.05196904
-0.07521008
-0.149669
-0.2691022
-0.3403977
-0.3343116
-0.2468622
-0.06579638
0.1161694
0.1817308
0.06589379
-0.1452951
-0.2884625
-0.4071657
-0.494264
-0.4231198
-0.2433981
-0.03419793
0.1453519
0.205737
0.2672465
0.4701306
0.6989865
0.9093478
1.089994
1.143343
1.040949
0.7458296
0.2933489
-0.2483628
-0.8304492
-1.276903
-1.441871
-1.345619
-1.082491
-0.7898356
-0.5338885
-0.2551197
0.04323287
0.3154186
0.522252
0.5908761
0.563449
0.5038375
0.4221674
0.3630518
0.2604186
0.0872208
-0.06672043
-0.1896071
-0.2842558
-0.3494233
-0.3571992
-0.2778398
-0.1688663
-0.08773551
-0.03350772
0.03552457
0.09354424
0.08777966
0.07602736
0.05585436
-0.04463623
-0.1583465
-0.1848383
-0.1271077
-0.00241099
0.1503532
0.2759537
0.3649415
0.4014696
0.3990298
0.3981162
0.4126236
0.4206962
0.3749787
0.2923494
0.2135127
0.1243174
0.01115302
-0.1327114
-0.2754194
-0.3200878
-0.312124
-0.3579577
-0.4147946
-0.472135
-0.512042
-0.5233451
-0.5468873
-0.5059909
-0.3293357
-0.05509767
0.1929012
0.3660239
0.4696404
0.4489485
0.3625599
0.285481
0.1641638
-0.0145431
-0.1715704
-0.2968789
-0.3709959
-0.3641358
-0.3303412
-0.2406009
-0.06383747
0.1340976
0.308099
0.4371782
0.4676498
0.4214429
0.357109
0.2417574
0.1300486
0.09887968
0.1228488
0.1295293
0.06341223
0.001698051
-0.02193793
-0.04105111
-0.01748774
0.0264036
0.04201289
0.03253185
0.003023625
-0.01206486
-0.006586484
-0.03268828
-0.08722416
-0.1679614
-0.3053835
-0.457535
-0.5465814
-0.5557793
-0.4700917
-0.2317476
0.005051758
0.0667339
0.01153499
-0.1389569
-0.3030801
-0.3860057
-0.329787
-0.0897118
0.117384
0.2173739
0.3128466
0.3448828
0.3594743
0.3626428
0.3135138
0.3234923
0.3068242
0.1901754
0.1593887
0.2175507
0.2340833
0.2613521
0.3762891
0.5161339
0.6026676
0.6300609
0.5996825
0.5535992
0.5435497
0.4930085
0.4126016
0.3516471
0.1641442
-0.09662271
-0.3627926
-0.5899152
-0.7554798
-0.942501
-1.142966
-1.720191
-1.98201
-3.466223
-7.645652
-7.677794
-1.779354
3.213225
5.937346
6.686728
5.049864
2.65883
0.4904811
-0.829899
-1.035358
-0.599391
0.0653277
0.8211821
1.533975
1.906004
1.811238
1.44959
1.107092
0.8110058
0.4163332
-0.06105802
-0.5462372
-0.9709711
-1.227157
-1.424267
-1.618216
-1.659886
-1.660972
-1.718397
-1.723225
-1.627267
-1.372944
-1.012012
-0.6732051
-0.3924164
-0.1903612
-0.06048916
-0.0097588
0.04473795
0.2412874
0.5293975
0.8780369
1.304777
1.67381
1.933217
2.143064
2.269483
2.29131
2.184883
1.883782
1.417092
0.8507928
0.1612993
-0.6540051
-1.452519
-2.092868
-2.52203
-2.760241
-2.832099
-2.6573
-2.224565
-1.571743
-0.6806551
0.355309
1.387397
2.231363
2.712291
2.802619
2.43953
1.663582
0.7353752
-0.1751475
-0.9185844
-1.40712
-1.700845
-1.760932
-1.519647
-1.058841
-0.5551081
-0.1201525
0.1502259
0.2225507
0.2010661
0.05786354
-0.2397854
-0.5541875
-0.7425699
-0.7372141
-0.5348518
-0.179435
0.2366612
0.7052983
1.19549
1.562802
1.7308
1.746614
1.665369
1.42635
1.067322
0.6401427
0.1414826
-0.2976398
-0.6465245
-0.8501953
-0.887267
-0.9728781
-1.055175
-0.9828857
-0.9342292
-0.9825198
-0.9443058
-0.9339704
-0.9375192
-0.5206692
0.03178076
0.2466787
0.2895868
0.3408593
0.4522008
0.5818185
0.7144439
0.8000543
0.7256801
0.538611
0.3298914
0.1354702
0.0354662
-0.02711458
-0.04922881
0.0005472411
0.0101833
0.1091184
-0.5279996
-1.425903
-0.8477952
-0.0372269
0.3801423
0.9926638
1.309739
1.34862
0.9885048
0.3899362
-0.1164294
-0.5800592
-0.8135036
-0.8273159
-0.6701941
-0.4579544
-0.4157554
-0.4670261
-0.5096364
-0.536502
-0.5481513
-0.553911
-0.4483184
-0.2080222
0.07108356
0.3123153
0.5045849
0.6916482
0.7673396
0.7328372
0.6741288
0.5602045
0.451761
0.3347545
0.1551698
-0.06770488
-0.2382041
-0.3178963
-0.3788273
-0.3488894
-0.257154
-0.09472385
0.09547843
0.06594151
-0.02884405
-0.02243263
-0.06816811
-0.1056187
0.05713809
0.1984778
0.1514643
0.2068068
0.2945184
0.1567441
-0.005559902
-0.03484223
-0.1252302
-0.3424111
-0.498678
-0.5414179
-0.4837975
-0.385765
-0.3457928
-0.2202534
-0.06275497
-0.01222836
0.1053869
0.2602285
0.3852537
0.5821629
0.7233585
0.665348
0.510384
0.3443491
0.181237
0.0273725
-0.131522
-0.2800721
-0.3994587
-0.4611568
-0.5699067
-0.6794771
-0.4487103
0.08878025
0.5185325
0.5966253
0.4804877
0.3123057
0.04818983
-0.1517595
-0.1370234
-0.03002404
-0.06550264
-0.02531962
0.2112916
-0.3691066
-1.912217
-2.396245
-0.4955222
2.360464
3.802856
3.173479
1.380313
-0.7418961
-2.491429
-3.208589
-2.876528
-1.892373
-0.7188995
0.2585688
0.9599401
1.376845
1.457712
1.302317
0.9678569
0.4909241
0.07530169
-0.1657435
-0.2801836
-0.3058887
-0.2076798
-0.08889754
-0.09423746
-0.1029044
-0.0592555
-0.03955851
0.002182092
0.1230636
0.2433177
0.3216068
0.389808
0.3528731
0.2510495
0.1624102
-0.005250503
-0.168803
-0.2535257
-0.3543064
-0.4368002
-0.3678051
-0.1424445
0.0225661
0.04560288
0.1032355
0.1976922
0.2416842
0.2264015
0.1489194
0.03057776
-0.08881047
-0.1764059
-0.24051
-0.2616725
-0.2324892
-0.1723545
-0.1018204
0.003957102
-0.008908187
-0.2375754
-0.6903476
-1.728799
-2.330168
-1.311898
0.3454216
1.838916
2.767114
2.703526
2.009985
1.01624
0.09590506
-0.4415277
-0.6366486
-0.7369776
-1.219443
-1.693268
-1.426969
-0.6681881
0.2195326
1.045602
1.380912
0.7127347
-0.8502311
-2.270075
-2.848943
-2.638116
-1.578714
0.2817177
2.238292
3.626306
4.313045
4.270569
3.61524
2.526235
1.205747
0.06116429
-0.7590589
-1.294272
-1.458295
-1.364462
-1.302315
-1.424032
-1.713374
-2.040493
-2.30186
-2.448821
-2.414677
-2.212649
-1.76817
-1.055099
-0.2692531
0.5257233
1.189444
1.418594
1.268556
1.22593
1.398026
1.406003
1.287368
1.308145
1.41815
1.256038
0.8196434
0.5640299
0.4025483
0.185202
0.00778281
-0.1984797
-0.3050494
-0.3140758
-0.3650104
-0.3978453
-0.4314051
-0.4907847
-0.5574481
-0.5081991
-0.2799108
-0.1248797
-0.08982006
-0.07563568
-0.1047552
-0.107665
-0.1690378
-0.3853383
-0.5794792
-0.6202805
-0.5453834
-0.3965263
-0.1674258
0.1311869
0.3685314
0.4442198
0.4442993
0.3884987
0.2826867
0.2024049
0.05840665
-0.1904655
-0.396048
-0.4848157
-0.3772526
-0.01332088
0.418417
0.6903844
0.7331393
0.6341577
0.4706989
0.2855699
0.1478421
0.08787261
0.1613058
0.2782874
0.2948487
0.2550211
0.2137288
0.13331
-0.04220538
-0.2813232
-0.5005912
-0.670944
-0.8237266
-0.9123755
-0.8738388
-0.7511375
-0.5680119
-0.3593153
-0.1404164
0.08519322
0.2996127
0.4815395
0.5323629
0.505228
0.4896376
0.4143331
0.2732269
0.1421614
0.08124723
0.03944813
-0.00987908
0.005127858
0.0223891
-0.05556369
-0.173103
-0.2341545
-0.247064
-0.211894
-0.1291876
-0.09090064
-0.1212571
-0.1692028
-0.1763314
-0.1273131
0.03830054
0.3583119
0.6813209
0.9387487
1.013855
0.7767015
0.4348862
0.1372876
-0.1383239
-0.3701652
-0.5569077
-0.6616954
-0.6155289
-0.4928657
-0.3781436
-0.2289884
-0.101259
-0.06041352
-0.09460175
-0.1400148
-0.1356461
-0.1377032
-0.1264639
-0.05661332
0.06835114
0.1907504
0.1997496
0.1013583
-0.01035404
-0.06108599
-0.1177418
-0.2230201
-0.2178548
-0.05626433
0.125156
0.284862
0.4454406
0.5539755
0.557837
0.44946
0.2564671
0.0925757
0.05389646
0.07018927
0.0651278
0.06595625
0.05857324
-0.04627184
-0.253713
-0.4347412
-0.5487409
-0.5804147
-0.4732409
-0.3682782
-0.3145688
-0.2132458
-0.1744672
-0.1572559
-0.01589605
0.1074832
0.1467149
0.1603733
0.1772502
0.2080205
0.1846356
0.142368
0.1583762
0.2094102
0.3207926
0.5159191
0.6941384
0.7390786
0.5850877
0.2858171
-0.008393505
-0.1993093
-0.3263923
-0.3888445
-0.3784559
-0.714711
-1.232917
-1.190007
-0.720737
-0.1492134
0.4018099
0.7427001
0.7995894
0.5896451
0.3235442
0.1462526
0.09724039
0.133283
0.1185071
0.07243471
0.07659362
0.1002076
0.03519708
-0.1295316
-0.3718838
-0.592132
-0.5951247
-0.4295585
-0.2151321
0.003232635
0.1547691
0.2462354
0.2952475
0.2690568
0.1713663
0.0004354525
-0.2012409
-0.3034329
-0.3265525
-0.3161836
-0.2254311
-0.08220973
0.07985294
0.2553311
0.4327707
0.5321143
0.5177964
0.4611476
0.3245944
0.1784075
0.1567886
0.08117218
-0.03951362
-0.05486755
-0.1320314
-0.2528175
-0.3177943
-0.3461979
-0.2884747
-0.2613615
-0.3216839
-0.3747805
-0.3832935
-0.2717557
-0.06755529
0.07161986
0.09676126
0.09563071
0.1641913
0.3088717
0.4229189
0.3955691
0.2866952
0.2167213
0.2249289
0.2755399
0.3071916
0.3346068
0.374139
0.3837382
0.3352509
0.1870413
-0.1682348
-0.5081568
-0.5219831
-0.417991
-0.3877887
-0.495108
-0.7380723
-0.8660439
-0.7701803
-0.5378166
-0.2693587
0.06180355
0.3690909
0.4383097
0.5271662
0.6676567
0.4793259
0.2091685
0.008036511
-0.3083474
-0.4773048
-0.4187556
-0.2603919
-0.04538194
-0.03431858
0.01011373
0.4017778
0.7873209
1.039168
1.032331
0.8043998
0.6862481
0.4876679
0.2974558
0.2118323
-0.04506397
-0.4557825
-1.018255
-1.350679
-1.250846
-1.128308
-0.938722
-0.5892902
-0.1475206
0.2773969
0.4655987
0.4909109
0.3924134
0.1505359
-0.07742039
-0.2111928
-0.2587251
-0.2645532
-0.2518214
-0.1843333
-0.05095837
0.06736187
0.09223448
0.1277775
0.36138
0.8173667
1.22677
1.291998
1.086968
0.7992198
0.4317835
0.04132768
-0.2128316
-0.2902019
-0.2868554
-0.2693155
-0.2823088
-0.3753109
-0.488712
-0.6152499
-0.8053381
-0.8581964
-0.650227
-0.4201872
-0.2740662
-0.1424899
-0.08635172
-0.09028181
-0.02616289
0.09906445
0.2479526
0.4064791
0.4401805
0.3334755
0.2477304
0.1795785
0.02128102
-0.1738536
-0.281201
-0.2852181
-0.2140932
-0.1065806
0.005587022
0.09919923
0.1423509
0.1498161
0.1472117
0.1838415
0.2167362
0.2003358
0.2020673
0.1856452
0.1568818
0.1223118
0.03071346
-0.02025091
0.01541929
0.08940448
0.1717376
0.2076498
0.1790722
0.08787305
-0.04019125
-0.09164235
-0.1118497
-0.2017347
-0.2307509
-0.1772992
-0.1125004
-0.04050658
0.01729224
0.103213
0.138647
0.07202037
0.00175517
-0.094311
-0.1847244
-0.1927464
-0.1798416
-0.1827926
-0.18242
-0.2189649
-0.3103868
-0.4082033
-0.4481868
-0.3631345
-0.2377629
-0.1452606
0.03525537
0.2762394
0.439645
0.56234
0.6888011
0.7554798
0.7267611
0.6296054
0.5027892
0.3767077
0.2406773
0.05341775
-0.1409145
-0.3099001
-0.5087808
-0.6929083
-0.8177809
-0.8582116
-0.7285222
-0.4234522
-0.06477775
0.1830987
0.2985744
0.3315952
0.2815408
0.1349864
-0.08247999
-0.2608519
-0.3541832
-0.3665661
-0.2948492
-0.1728719
-0.03684685
0.07965425
0.2096846
0.341014
0.4221465
0.5039185
0.5919295
0.6420033
0.6049111
0.4979016
0.4118651
0.2803579
0.03536129
-0.244516
-0.5085917
-0.6955338
-0.723496
-0.5951097
-0.4090628
-0.2370688
-0.05439442
0.113342
0.2398594
0.3334923
0.4045044
0.4290582
0.392417
0.4180934
0.3777546
0.1843007
0.1120539
0.1013107
-0.02990118
-0.1914147
-0.3363095
-0.4939192
-0.612261
-0.6280937
-0.57244
-0.472016
-0.374755
-0.3614391
-0.3998745
-0.3863594
-0.264129
-0.07754408
0.08018047
0.1644732
0.1841946
0.1799605
0.1459376
0.08766954
0.1331488
0.3262789
0.5368722
0.6293904
0.5482307
0.3521757
0.1336471
-0.01070489
-0.05889709
-0.0994365
-0.03313619
0.1543489
0.2660715
0.3519621
0.4416744
0.4610206
0.4876175
0.5480707
0.5671583
0.529825
0.4728669
0.3260772
0.07762494
-0.1491666
-0.2900728
-0.2906467
-0.2256413
-0.2939346
-0.561242
-0.9281694
-1.274176
-1.606279
-1.916807
-2.080946
-2.040292
-1.805068
-1.34458
-0.7502888
-0.2559357
0.05017346
0.2728195
0.5593715
0.9613795
1.449285
1.999324
2.553541
3.001504
3.153733
2.908943
2.360519
1.625729
0.8144331
0.0477847
-0.5653447
-0.9937306
-1.245179
-1.318022
-1.229884
-1.012766
-0.8074595
-0.7493961
-0.8425527
-1.081081
-1.366623
-1.553586
-1.649204
-1.618254
-1.378858
-0.9949772
-0.4914474
0.1649432
0.8675216
1.423178
1.767504
1.990114
2.119449
2.066779
1.680131
0.952847
0.1303635
-0.6882578
-1.50271
-2.107447
-2.327798
-2.197033
-1.864493
-1.409007
-0.7891744
-0.02435481
0.7819971
1.570233
2.277631
2.792471
3.002726
2.8816
2.524259
1.93622
1.128609
0.2190074
-0.7152099
-1.48536
-1.964946
-2.217024
-2.223399
-1.975385
-1.498256
-0.8744702
-0.4708845
-0.395116
-0.3491711
-0.4032919
-0.6392289
-0.8165441
-0.8853077
-0.8920347
-0.8249699
-0.6647758
-0.3932757
-0.0007755457
0.5519605
1.185889
1.73244
2.089351
2.210792
2.092395
1.727348
1.197531
0.6449876
0.1106944
-0.2945414
-0.4728363
-0.5614332
-0.6180598
-0.5639384
-0.464088
-0.377846
-0.2912249
-0.2320089
-0.1770402
-0.1548873
-0.2074893
-0.2038185
-0.1152896
-0.07210059
-0.09576378
-0.1619188
-0.2517605
-0.326161
-0.3903155
-0.4316052
-0.4103358
-0.293149
-0.08901589
0.1010867
0.2294814
0.3378429
0.3947406
0.4087474
0.4269168
0.4020909
0.3490124
0.2122088
0.04783555
0.1247828
0.2753977
0.2168622
0.1487996
0.17386
0.07483051
-0.1379264
-0.3435824
-0.4929762
-0.5625826
-0.5570938
-0.4023472
-0.2297195
-0.06999326
-0.03147124
-0.1393372
-0.3905513
-1.849406
-3.215857
-2.143829
0.1549927
2.546138
4.201755
3.982599
2.677764
1.176278
-0.1775995
-1.100942
-1.460046
-1.283133
-0.9359581
-0.6184645
-0.2691159
0.0148411
0.07398121
0.02085845
-0.05991488
-0.1417699
-0.2112627
-0.3412759
-0.3891231
-0.2974248
-0.1700836
-0.0547148
-0.02050892
-0.02199281
-0.01272931
0.02704356
0.1140506
0.141413
0.1246932
0.1554595
0.2020558
0.2473339
0.3497254
0.5311016
0.673223
0.686879
0.5691015
0.3180969
0.03957187
-0.1498894
-0.3227365
-0.5649362
-0.7609272
-0.8435691
-0.8415722
-0.6977162
-0.4836535
-0.33839
-0.1831146
0.05492667
0.2724474
0.410042
0.4947091
0.5069818
0.40043
0.2420302
0.1823846
0.2713842
0.4061103
0.4430418
0.3537017
0.1995491
-0.02136956
-0.3337135
-0.5968143
-0.6380887
-0.4994299
-0.3014607
-0.1009507
0.04324941
0.08737595
0.03997647
-0.0571888
-0.1751335
-0.3119517
-0.4117249
-0.4258237
-0.3397774
-0.1577171
0.06695276
0.2690688
0.4385202
0.5896522
0.6417648
0.6101732
0.5634528
0.4939843
0.4226043
0.3256479
0.2342931
0.1383472
-0.009596621
-0.1500451
-0.3388267
-0.5301106
-0.5773305
-0.5568832
-0.4891575
-0.3117293
-0.07737825
0.1021968
0.1623664
0.1792342
0.1612937
0.04348095
-0.08471213
-0.09371408
0.03977597
0.1913187
0.2451855
0.22883
0.1435497
-0.06207388
-0.3420258
-0.5226849
-0.5634584
-0.5859455
-0.5602012
-0.4237863
-0.2510854
-0.1424592
-0.09356247
0.01577559
0.190196
0.3307534
0.4200797
0.450386
0.4507042
0.4655356
0.4429755
0.4045191
0.4081552
0.4367301
0.5008004
0.5798069
0.6404799
0.6464813
0.5496055
0.4077729
0.2549736
0.0230818
-0.3252184
-0.6765904
-0.878587
-0.9977486
-1.082154
-1.032265
-0.9153693
-0.7994959
-0.6111858
-0.4549801
-0.536908
-0.7875253
-0.9551628
-0.9157038
-0.5315378
0.3217099
1.376025
1.989197
1.4814
-0.1196482
-1.852439
-2.805737
-2.593795
-1.124404
1.217547
3.497265
5.026058
5.854348
6.001583
5.201785
3.525111
1.408165
-0.6042833
-2.289747
-3.58628
-4.298689
-4.525384
-4.174309
-3.63358
-3.27369
-2.435043
-1.647444
-1.312582
-0.8156921
-0.336667
0.02414955
0.3042158
0.4607135
0.6222203
0.7918946
0.8868755
0.8690825
0.8161408
0.8792365
1.128798
1.345695
1.538041
1.917192
2.18793
2.17535
1.88497
1.227111
0.5580077
-0.179281
-1.138511
-1.797084
-1.969943
-1.658007
-1.123964
-0.6187688
0.2248445
1.30255
1.949148
1.704377
0.7410355
-0.3795352
-1.389876
-2.073959
-2.167787
-1.718255
-1.008992
-0.2525637
0.4239675
0.7993163
0.8052602
0.5898786
0.2663231
-0.0401122
-0.2367277
-0.2993606
-0.2246582
-0.1063052
-0.02834984
-0.02303877
-0.05834638
-0.03441353
-0.02222602
-0.08372864
-0.1105519
-0.06771988
-0.02860347
-0.03320985
0.01055293
0.1320471
0.2365263
0.2916933
0.2606988
0.1287725
0.03143667
0.03147044
0.07384785
0.1638691
0.252866
0.2607445
0.199695
0.1248568
0.08465792
0.1318954
0.2167463
0.1950451
0.09621302
-0.02317342
-0.1238336
-0.06893908
0.08027534
0.1695287
0.1766741
0.1270246
0.08857674
0.06429361
-0.001463713
-0.1035502
-0.2570511
-0.4298982
-0.5269216
-0.5705258
-0.5975023
-0.5606856
-0.4522473
-0.340423
-0.2073016
0.03130535
0.2754308
0.4304135
0.5351395
0.5256078
0.3123608
0.01506267
-0.1513079
-0.1577014
-0.05189016
0.08463909
0.1096043
0.06952833
0.09703293
0.1450055
0.1374529
0.1273153
0.1228987
0.1260811
0.1766922
0.2306558
0.2846509
0.3311042
0.2350834
0.02393473
-0.1558653
-0.3852393
-0.6509631
-0.7058519
-0.4969147
-0.2375702
-0.1031522
-0.06677988
-0.01961877
0.04384656
0.03880334
-0.02883041
-0.04810122
0.07064433
0.2420196
0.3283343
0.3401698
0.3193524
0.2951908
0.2303833
0.09648228
0.02744856
0.04182077
0.01364082
-0.04877673
-0.1180918
-0.1948046
-0.222505
-0.2202135
-0.2459086
-0.3066633
-0.3901282
-0.4004974
-0.2552234
-0.034326
0.1605335
0.3120159
0.4085467
0.3987675
0.2642408
0.05245296
-0.1674238
-0.3027759
-0.2800823
-0.1127206
0.09390332
0.2223372
0.206723
0.09721054
0.0818429
0.1836587
0.2516558
0.2500146
0.132897
-0.08363909
-0.2220904
-0.228604
-0.1723262
-0.09554745
0.04036871
0.2530236
0.4381885
0.5414981
0.539579
0.3855432
0.1064898
-0.1924336
-0.4206634
-0.583427
-0.6617024
-0.6820244
-0.6965131
-0.6242775
-0.4747517
-0.2735001
0.004822234
0.241212
0.3719244
0.4246904
0.3963425
0.2876368
0.121319
-0.02187693
-0.1871852
-0.3992841
-0.4536145
-0.2984219
-0.02714449
0.3556983
0.7083774
0.8477045
0.8378795
0.7174891
0.4604388
0.1629756
-0.04007291
-0.08959599
-0.05673522
0.006356626
0.05338466
0.03775945
-0.03522061
-0.1797886
-0.3238834
-0.3923526
-0.3920809
-0.3703919
-0.3950751
-0.403255
-0.3753376
-0.3685879
-0.3151875
-0.1843935
-0.04032572
0.02819559
0.03706628
0.05565052
0.05776766
0.08849622
0.1805622
0.2741806
0.3031248
0.1889138
-0.05733624
-0.3318416
-0.4930957
-0.4890376
-0.3983057
-0.2306245
0.01513451
0.2545223
0.4310023
0.5303534
0.6114603
0.7210736
0.8002017
0.8284816
0.7802433
0.6010927
0.3206038
0.07617542
-0.09559245
-0.3000102
-0.4815651
-0.5615107
-0.4954643
-0.3440229
-0.3170229
-0.3690204
-0.3928164
-0.4093833
-0.4090164
-0.3547765
-0.2349092
-0.1749192
-0.2100422
-0.1817721
-0.02398618
0.1861249
0.3505474
0.4217439
0.3765765
0.2283357
0.09310202
-0.006442152
-0.1336981
-0.1497437
-0.04475391
0.03357644
0.1781542
0.3820899
0.5106884
0.4919583
0.2942451
0.07948798
-0.07764835
-0.263246
-0.4371022
-0.4834863
-0.390056
-0.2684212
-0.1608874
0.01832627
0.2655757
0.4266865
0.4260782
0.282167
0.01856174
-0.29608
-0.5818318
-0.7566504
-0.7334598
-0.5473855
-0.2961683
0.04129891
0.3956659
0.6462647
0.74174
0.6303461
0.3738315
0.1031647
-0.05202314
-0.1949192
-0.4172199
-0.5972493
-0.5451228
-0.06736699
0.3725857
0.3885499
0.3256288
0.3151111
0.3107407
0.3461166
0.3728306
0.2530673
-0.03539437
-0.2753455
-0.3570051
-0.3420822
-0.2973153
-0.2721973
-0.202451
-0.05431741
0.05026186
0.1149693
0.2028752
0.2453254
0.2953646
0.4238634
0.4754146
0.376166
0.1795583
-0.01881284
-0.0899544
-0.1037261
-0.1078664
-0.1077415
-0.1851982
-0.2667039
-0.3128949
-0.3645176
-0.4071853
-0.4376052
-0.4517388
-0.3909945
-0.2516486
-0.1491275
-0.1422955
-0.1849433
-0.1197054
-0.02109543
-0.0808237
-0.09089822
0.03299019
0.1813389
0.3701819
0.4992087
0.5105549
0.4523343
0.3391602
0.2474692
0.1984218
0.1683626
0.2044601
0.2549827
0.2526254
0.2274205
0.15332
0.02689053
-0.08651302
-0.18085
-0.2482632
-0.2715885
-0.2959478
-0.3406782
-0.3673337
-0.3368513
-0.2509619
-0.1807794
-0.1642204
-0.1803631
-0.2313165
-0.2395589
-0.07360866
0.214287
0.4514386
0.5667661
0.5584395
0.4678435
0.3828165
0.287434
0.1973191
0.2395868
0.2988784
0.2793669
0.2985309
0.2351734
0.002422355
-0.2529562
-0.4479156
-0.5621867
-0.6971703
-0.9011974
-1.000156
-0.9340926
-0.7557478
-0.4617863
-0.109163
0.2093402
0.4257115
0.5072172
0.5006331
0.4743635
0.3755304
0.1588934
-0.04322412
-0.1618081
-0.2495074
-0.3000342
-0.3117969
-0.2803899
-0.1111362
0.2053972
0.5109475
0.69293
0.7696521
0.8033035
0.8097148
0.7249509
0.5596573
0.421077
0.2838704
0.1114021
0.025865
0.0059106
-0.08650623
-0.2275887
-0.3809833
-0.4621902
-0.377009
-0.300171
-0.3595009
-0.5327323
-0.7680991
-0.8983378
-0.8766084
-0.7223418
-0.5442075
-0.4833737
-0.3640372
-0.1382612
0.043465
0.1803458
0.26944
0.317906
0.3597851
0.4241857
0.5094767
0.5650378
0.6203736
0.6987661
0.7193715
0.6200225
0.4779018
0.2365705
-0.2486933
-0.8830158
-1.608023
-1.850668
-1.061567
0.0663303
0.9193503
1.353485
1.241009
0.8166975
0.3580224
0.03244825
-0.04479381
0.06453893
0.1137623
0.005415569
-0.1369002
-0.23804
-0.2081759
-0.102356
-0.08696833
-0.1333105
-0.1425866
-0.07595374
-0.004596729
0.05372274
0.2284994
0.4865544
0.6368189
0.6158711
0.4705523
0.1904485
-0.1602148
-0.3938037
-0.3913153
-0.2314496
-0.1485464
-0.2021596
-0.4131182
-0.7818578
-1.088216
-1.428988
-1.812231
-1.808777
-1.464034
-0.9856902
-0.2976974
0.3947049
0.8401901
1.03043
0.984157
0.8244958
0.7371873
0.8512047
1.168537
1.555325
1.853211
1.926931
1.786308
1.489248
1.113749
0.7667838
0.3070142
-0.299985
-0.8269759
-1.222962
-1.507354
-1.644932
-1.605743
-1.452585
-1.333997
-1.245375
-1.090828
-0.8764364
-0.6420118
-0.42301
-0.2641546
-0.04735256
0.3448381
0.8306805
1.240358
1.375179
1.304963
1.203435
0.9735094
0.5681854
0.07904984
-0.4349226
-0.92554
-1.375393
-1.726288
-1.878422
-1.823427
-1.567265
-1.036808
-0.2188077
0.7481055
1.715961
2.555614
3.172312
3.58412
3.750558
3.511037
2.740924
1.528209
0.08811332
-1.369597
-2.502729
-3.106619
-3.247544
-2.92077
-2.218895
-1.416945
-0.7017574
-0.2104078
-0.05059728
-0.2148164
-0.5154228
-0.7239491
-0.7888357
-0.7925306
-0.8081962
-0.7569995
-0.5424997
-0.183905
0.2725732
0.7991082
1.319218
1.652611
1.670552
1.444167
1.188952
0.9246269
0.5574103
0.1836236
-0.1183314
-0.292382
-0.3386835
-0.2988121
-0.1206804
0.1050803
0.2348253
0.2597951
0.2473183
0.3061082
0.4357147
0.5444312
0.6300277
0.6520095
0.5026469
0.2082652
-0.1216499
-0.4069605
-0.7077947
-1.011526
-1.130018
-1.113002
-1.014343
-0.7932842
-0.5732789
-0.3607044
-0.1202813
0.1165685
0.341455
0.4713367
0.4875698
0.3857217
0.1686477
0.002955093
-0.09644255
-0.2146926
-0.2919732
-0.3160621
-0.2527677
-0.1076244
-0.05232451
-0.03267145
0.112445
0.2727982
0.4027806
0.529608
0.5537214
0.4570524
0.2668915
0.08885361
0.05304924
0.04029385
-0.07037458
-0.1568552
-0.1626225
-0.147352
-0.07538325
0.02226974
0.1178311
0.2793294
0.4209429
0.419211
0.2219609
-0.1514222
-0.4578163
-0.5501853
-0.5044657
-0.3450624
-0.1369582
-0.0298922
-0.1208266
-0.2413985
-0.2760049
-0.3398166
-0.3083433
-0.1402179
-0.03830468
0.003566578
0.1280539
0.2655058
0.2982159
0.2901147
0.2373914
0.2049793
0.3002001
0.3954745
0.4320444
0.4246857
0.2950411
0.1084038
-0.02599384
-0.1292403
-0.2204182
-0.2871248
-0.254492
-0.1341495
-0.1375367
-0.3326297
-0.5091502
-0.4656283
-0.1917563
0.04705773
-0.003506606
-0.1366743
-0.1628579
-0.08625067
0.2625625
0.7997982
1.114527
1.095697
1.033234
0.7948695
0.05914623
-0.6701319
-0.9974827
-1.093633
-0.835232
-0.1858028
0.4298813
0.6423546
0.3238593
-0.2592329
-0.6514674
-0.9119459
-1.050893
-0.709917
-0.05177024
0.4031061
0.480396
0.2223717
-0.2822956
-0.6153545
-0.5271962
-0.2966639
0.06429098
0.53007
0.6816124
0.5425938
0.2978007
0.1169121
0.232996
0.3040617
0.3211986
0.507674
0.6385601
0.7581177
0.7914074
0.6240413
0.4780438
0.4864008
0.4513738
0.1033809
-0.2984481
-0.6321068
-1.152868
-1.473215
-1.231799
-0.8956021
-0.713458
-0.6631536
-0.8185618
-0.8451349
-0.6515148
-0.419651
-0.18589
-0.0507007
0.1860481
0.3780601
0.3368573
0.4391102
0.4894679
0.5575079
1.009549
1.268032
1.140466
0.9328085
0.5470673
0.1237497
0.05168047
0.3132116
0.5531577
0.5740617
0.3771836
0.09191369
-0.157604
-0.3815156
-0.5135764
-0.5118511
-0.3841356
-0.280247
-0.2667826
-0.1073816
-0.08215242
-0.4445966
-0.6964464
-0.6207764
-0.4368005
-0.2147407
-0.1078421
-0.1876716
-0.1572702
-0.09459983
-0.2054072
-0.2464732
-0.1668832
-0.08219901
-0.04462434
-0.02882471
0.1253071
0.2203676
0.06874529
0.01758004
-0.0284429
-0.4431986
-0.7055515
-0.4342191
0.1231449
0.7977377
1.054691
0.5126628
-0.5965772
-1.594831
-1.97167
-2.232681
-1.983872
-0.4726436
1.614388
3.643705
4.991362
5.423965
5.079409
3.91248
2.296339
0.3486063
-1.361139
-2.292588
-2.662168
-2.506888
-2.197394
-1.890787
-1.643598
-1.826917
-2.15974
-2.385275
-2.412785
-2.183296
-1.917964
-1.30633
-0.08013605
1.155764
1.674419
1.591682
1.391326
1.117422
0.7069576
0.2515288
0.1299824
0.2500545
0.3347294
0.7783228
1.236278
1.072236
0.7216331
0.7679673
0.9835019
0.8244097
0.3487344
-0.1697292
-0.5083908
-0.4653588
-0.241231
-0.1227961
-0.190845
-0.4677009
-0.7413936
-0.6171846
-0.2834647
-0.1686243
-0.03483003
0.3130979
0.5032631
0.4021657
0.2449205
0.1386011
0.09540316
-0.07996557
-0.4097292
-0.4878256
-0.4389482
-0.5844909
-0.7197203
-0.7540354
-0.6541383
-0.3340758
0.02431971
0.2367565
0.2186724
0.1669449
0.2186132
0.186082
0.1699499
0.1812542
0.2377674
0.4087473
0.2593358
-0.1191006
-0.2414384
-0.07340481
0.2497356
0.4856174
0.6019054
0.6422047
0.5498359
0.4160817
0.1449667
-0.3566898
-0.7161714
-0.6458891
-0.4653819
-0.4567321
-0.3927892
-0.1942098
-0.009043313
0.2326822
0.4656064
0.4163885
0.1292493
-0.02827666
0.01946478
0.00541864
-0.1812797
-0.5614905
-0.795991
-0.4942159
-0.09132402
0.108711
0.355889
0.605456
0.6115237
0.238948
-0.2051434
-0.1970669
0.07589319
0.3054197
0.5057728
0.5322476
0.4314497
0.2668358
0.06166245
-0.1476071
-0.4269202
-0.5441028
-0.4280712
-0.2259659
-0.03181873
-0.007101954
-0.07078929
-0.1550297
-0.2080909
-0.06673504
0.09486232
0.1630412
0.1997351
0.1343793
0.05247129
0.01327303
0.009626926
0.1029408
0.08836387
-0.07297468
-0.1843674
-0.3160644
-0.3723323
-0.4191057
-0.6868368
-0.745245
-0.2523375
0.4394927
0.8252593
0.8376019
0.5879264
0.09713358
-0.2356279
-0.227605
-0.138238
0.05637818
0.2682106
0.1645444
-0.09302985
-0.1300704
-0.08822337
-0.1499264
-0.1197281
-0.02123955
0.01375686
0.132997
0.2289173
0.2179727
0.3860631
0.5341302
0.3192431
0.01082743
-0.2300014
-0.2974435
0.06774841
0.4395137
0.2558556
-0.2902148
-0.6242601
-0.5055775
-0.2440214
-0.03686254
0.09451297
0.1072981
0.1551642
0.07914903
-0.2277387
-0.3043919
-0.04837293
0.2181063
0.434074
0.4094886
-0.178192
-0.5075145
-0.08032311
0.1052518
-0.1266554
-0.3646
-0.5304548
-0.5233407
-0.4553878
-0.4079844
-0.1461818
0.4455515
0.7056547
0.5360892
0.4680718
0.2060521
-0.2049748
-0.2571945
-0.0007847882
0.2316807
0.2007194
0.02465567
-0.1328444
-0.1832644
0.04875819
0.4662204
0.8158181
0.8739505
0.5468948
0.1410363
-0.1060791
-0.4402831
-0.7793059
-0.7309833
-0.5254651
-0.3109887
0.005982046
0.1389345
0.05960037
0.01041359
-0.07037671
-0.06952521
0.1023216
-0.03972185
-0.30091
-0.3291157
-0.5431393
-0.7135074
-0.4672354
0.02377217
0.450866
0.52947
0.4352346
0.3139384
0.3318523
0.6775903
0.9507363
0.9347948
0.8210257
0.6499621
0.3058877
-0.09912778
-0.2947084
-0.4959347
-0.7417515
-0.8527574
-1.080902
-1.240881
-0.9849666
-0.5269869
-0.05767827
0.3757571
0.642994
0.6820498
0.521909
0.2176919
-0.01409424
0.02137633
0.2326057
0.3424343
0.1923978
-0.07679841
-0.3288279
-0.5431976
-0.5374211
-0.2196523
0.0868684
0.1265353
0.03088323
-0.07022618
-0.2409278
-0.4325957
-0.3996975
-0.2091939
-0.1995456
-0.1923895
0.1145588
0.5368065
0.9314135
1.118891
1.002017
0.7807718
0.4587901
0.07141556
-0.2304073
-0.3210484
-0.2741437
-0.2903256
-0.244351
-0.08181117
-0.04645776
-0.1785519
-0.1159692
0.07715008
0.04099891
0.006027567
-0.002454728
-0.1421102
-0.2824723
-0.4726976
-0.64022
-0.586014
-0.2895038
0.1652149
0.4925299
0.622976
0.6750228
0.4730857
0.1722543
0.03473759
-0.09135739
-0.1848814
-0.2230739
-0.3268325
-0.4528647
-0.4449022
-0.2542238
-0.0207656
0.05548882
-0.1022877
-0.1250735
0.1291174
0.2390454
0.2278561
0.2104902
0.0407388
-0.1418884
-0.1364107
0.1030909
0.2898057
0.1992109
0.002465933
-0.215096
-0.2944165
-0.1835338
-0.08516633
0.0585013
0.3085124
0.4420351
0.3367714
0.2236794
0.1676784
0.04153233
0.05504367
0.1459032
-0.05397174
-0.2694078
-0.1675542
-0.07577699
-0.09492166
0.02691842
0.1527773
0.0990034
-0.04751089
-0.2488078
-0.4407354
-0.515717
-0.5753326
-0.6120576
-0.3485215
0.06667697
0.2034551
0.1513765
0.1984477
0.3144452
0.4312418
0.656359
0.777225
0.6001074
0.4362215
0.2876467
0.01780395
-0.1565547
-0.1840315
-0.2037149
-0.1240664
0.02516008
-0.02386322
-0.1330108
-0.2117887
-0.4230214
-0.5051417
-0.1967114
0.1464645
0.146663
0.03646092
0.04796517
-0.05478117
-0.3128216
-0.4222122
-0.3265676
-0.2293217
-0.1880711
-0.06114129
-0.01741199
-0.2843875
-0.5894334
-0.5953098
-0.3170282
-0.1334742
-0.002615529
0.3497856
0.5493837
0.6187184
0.8505279
0.87071
0.5864725
0.3474611
0.2860441
0.2763772
0.2325605
0.2681173
0.253646
0.03830567
-0.2294181
-0.3494612
-0.2112425
-0.06761993
-0.01994686
0.06379036
0.162061
0.3370006
0.4078841
0.266295
0.1639403
-0.037437
-0.6032681
-1.062073
-0.9413685
-0.6738111
-0.6041123
-0.5256162
-0.5013623
-0.5242153
-0.3331866
-0.2030206
-0.196869
0.0474527
0.3082817
0.4208452
0.6455996
0.7042833
0.4453814
0.5489875
0.6721057
0.3301133
0.2469863
0.3012565
0.2033883
0.03257098
-0.2815637
-0.4004654
-0.372449
-0.07725942
0.4768735
0.5543122
0.2224375
-0.1856281
-0.4163359
-0.2458003
-0.09007306
-0.05580917
-0.2172022
-0.6283961
-0.6730473
-0.3806963
-0.2839041
-0.31485
-0.1865828
0.2171983
0.7146608
0.9124921
0.7341837
0.4385484
0.2300938
0.2002624
0.2765515
0.2868771
0.1647362
0.03574242
-0.04772151
-0.3079957
-0.6593356
-0.7681903
-0.650129
-0.4218511
-0.2572389
-0.2826959
-0.2745839
-0.2549032
-0.4079003
-0.5029749
-0.3872346
-0.1214785
0.09258717
0.06178094
0.05064067
0.09403301
0.0708522
0.2665393
0.621347
0.9482464
1.191142
1.178394
1.060891
0.9645105
0.6658626
0.1771057
-0.09923965
-0.00224423
-0.05305604
-0.5903862
-0.8606527
-0.5056441
-0.3110707
-0.234777
0.1570352
0.4314813
0.4695476
0.4217959
0.1862431
-0.08508658
-0.3292281
-0.7098336
-1.198512
-1.635833
-1.829342
-1.768004
-1.604595
-1.306866
-0.8520418
-0.4107395
-0.02870478
0.3713184
0.7081335
1.000939
1.341678
1.593893
1.787169
1.927278
1.820817
1.529364
1.154045
0.7551029
0.4056163
0.09127177
-0.1470277
-0.3324053
-0.5242878
-0.6041071
-0.5247761
-0.4331025
-0.4082774
-0.4146927
-0.429348
-0.5094355
-0.6892895
-0.8414942
-0.9291736
-1.028895
-1.002952
-0.8353458
-0.6440789
-0.4058051
-0.1392022
0.2465456
0.6749645
0.9705616
1.224234
1.247501
0.9224821
0.5045511
0.07247595
-0.3629448
-0.7137553
-0.8723637
-0.8259073
-0.6500524
-0.4371918
-0.2775665
-0.05853297
0.345475
0.9858332
1.704894
2.121408
2.211926
2.076843
1.69006
1.097518
0.3004097
-0.5442454
-1.12777
-1.358735
-1.377732
-1.38327
-1.388142
-1.294112
-1.156431
-1.073131
-1.032693
-0.9340639
-0.7861357
-0.7173053
-0.7068704
-0.6062412
-0.4034107
-0.2402003
-0.09519786
0.2010015
0.620385
0.9688356
1.129491
1.076542
0.8984074
0.7758563
0.723914
0.6792571
0.6132318
0.4853505
0.3904218
0.4213954
0.5289122
0.507418
0.2258504
-0.04423575
-0.1443156
-0.2636759
-0.4122703
-0.4167049
-0.2702608
-0.1189735
-0.03374468
-0.02141565
-0.0877252
-0.2352029
-0.3987513
-0.4464906
-0.3824609
-0.2428236
-0.08290142
0.01491956
0.1041063
0.177146
0.1788999
0.1101771
0.03294514
0.007610196
-0.03586205
-0.09334193
-0.151569
-0.2292798
-0.2247888
-0.1555558
-0.07242139
0.074589
0.1604671
0.06640599
-0.06766217
-0.1607292
-0.2687989
-0.336656
-0.3376504
-0.2971387
-0.154207
0.03508998
0.1666975
0.2302765
0.239969
0.2675502
0.3327962
0.3705685
0.3667483
0.3341181
0.2388547
0.09689955
-0.008018194
-0.07230844
-0.1313128
-0.189671
-0.2174655
-0.1878757
-0.1486431
-0.08463731
0.05722001
0.2119438
0.3194632
0.3782648
0.4012102
0.3624198
0.2256473
0.01702071
-0.2333954
-0.4057835
-0.4290564
-0.3990547
-0.3435981
-0.2949487
-0.2419407
-0.09698495
0.01872452
0.05058713
0.09485035
0.08084808
0.01041875
-0.02665458
-0.03732688
-0.03948826
-0.01800379
0.04628718
0.08195448
0.07711341
0.06441963
0.02374697
0.008345755
0.0310708
0.01599555
-0.04495784
-0.02789059
0.04687145
0.04570366
0.07737067
0.2313944
0.5211835
0.9806414
1.482396
1.389709
0.3213009
-0.9606966
-1.89662
-1.674337
-0.8793735
-0.2469414
0.2272795
-2.827243
-5.245274
-1.672391
1.87097
3.618876
4.749315
3.917741
2.235642
0.433384
-0.927444
-1.472659
-1.526874
-1.306148
-1.002837
-0.5974753
-0.212653
0.02453833
0.1036368
0.08889294
0.1140216
0.1202448
0.02152609
-0.148751
-0.4024277
-0.6073384
-0.4506675
0.01565842
0.5321898
1.043527
1.247358
0.9629612
0.5733045
0.2849977
-0.01175281
-0.4047028
-0.9127895
-1.426554
-1.835883
-1.918778
-1.43669
-0.6439191
0.03802144
0.4810461
0.7510705
0.9986781
1.307967
1.579288
1.681426
1.542908
1.1452
0.6272984
0.1811693
-0.2451468
-0.7921159
-1.160681
-1.13647
-0.9272841
-0.5557997
-0.1229285
0.2264266
0.4200717
0.380587
0.3067553
0.2273808
0.02509564
-0.2257697
-0.3851431
-0.3804171
-0.3428249
-0.3277228
-0.4717219
-0.5929897
-0.2472219
0.3163703
1.563391
2.647299
1.336954
-0.7879986
-1.785346
-2.193879
-2.224517
-1.956423
-1.351519
-0.547295
0.1662355
0.8876069
1.474394
1.694787
1.583775
1.35412
1.182516
1.054892
0.8310168
0.4598031
0.09771796
-0.1342771
-0.2680783
-0.3000472
-0.3245967
-0.5163915
-0.7864693
-0.9216728
-0.7915825
-0.4768532
-0.1454604
0.1480426
0.2074975
-0.2357435
-1.264278
-2.379133
-2.718645
-2.309966
-1.556643
-0.3249725
1.24187
2.631854
3.613886
4.399312
4.958425
4.842381
4.048734
2.732738
0.8902174
-1.220337
-3.05442
-4.101553
-4.313437
-3.930171
-3.273076
-2.633848
-2.05314
-1.607661
-1.355527
-1.142923
-0.8125094
-0.2556265
0.5170758
1.327171
1.893263
2.037574
1.778071
1.285897
0.8689497
0.7018913
0.7932329
1.03392
1.306947
1.542667
1.482598
0.968349
0.2777675
-0.1926867
-0.4549548
-0.6966223
-0.8342137
-0.8644279
-0.8846059
-0.8432665
-0.7789639
-0.7287954
-0.6686643
-0.6551934
-0.5321458
-0.2057861
0.08211607
0.2452174
0.2854515
0.2368747
0.2372749
0.2308638
0.2013273
0.2149558
0.1926348
0.1198094
0.05602542
-0.065487
-0.2800737
-0.4345183
-0.4948802
-0.4563327
-0.2531954
-0.005287322
0.1980446
0.3141582
0.3881539
0.4170426
0.3580405
0.2391634
0.1043728
0.3365518
0.3780593
-0.159805
-0.213714
0.02484285
-0.01200869
-0.0431344
-0.02466619
0.07739373
0.1504594
0.1204834
0.08866039
0.08185284
0.06402466
-0.04890396
-0.1633174
-0.2057936
-0.2430067
-0.1757072
0.002672083
0.08131459
0.03383381
-0.05420851
-0.1707503
-0.2598558
-0.2875432
-0.2948655
-0.2373863
-0.1012278
0.009608526
0.04041457
0.01751296
-0.03939968
-0.1412572
-0.1890879
-0.163465
-0.1946558
-0.197939
-0.04361411
0.2084221
0.44991
0.6133822
0.6562371
0.52194
0.3066727
0.212051
0.2368754
0.3019704
0.3058789
0.1483014
-0.05510242
-0.2284904
-0.3561349
-0.4048963
-0.4063184
-0.3532127
-0.3352871
-0.353173
-0.2981458
-0.228862
-0.1775617
-0.06336215
0.1124315
0.2340797
0.298325
0.2929182
0.2111703
0.1844146
0.1778618
0.1171207
0.04532253
0.03204202
0.0766204
0.1147659
0.1522293
0.1590137
0.1012691
0.0002184669
-0.1296913
-0.2864604
-0.4015191
-0.4029801
-0.3210261
-0.1848515
-0.08081341
-0.06337962
-0.06873556
-0.06070698
-0.08004683
-0.122358
-0.09064686
0.01231683
0.1729537
0.3596073
0.4359223
0.3978769
0.3135299
0.1865199
0.09460992
0.1046154
0.1090987
0.03069126
-0.08336628
-0.1746536
-0.2589219
-0.3421946
-0.35093
-0.3055502
-0.197483
-0.02936594
0.03321943
-0.02555736
-0.08088861
-0.09886624
-0.06889753
0.01878884
0.1370914
0.2524773
0.289675
0.2414153
0.2043721
0.180496
0.1275837
0.03894846
-0.02718896
-0.03262258
-0.07732891
-0.1304047
-0.1206357
-0.09750853
-0.04327171
0.00360543
0.02276588
0.06577941
0.02649364
-0.100032
-0.1080032
0.001977304
0.1188734
0.2798183
0.401252
0.394099
0.3521074
0.2306729
-0.01473767
-0.1970488
-0.2060905
-0.1516852
-0.1695187
-0.2698797
-0.39211
-0.4876294
-0.5389531
-0.5428702
-0.4492692
-0.2854416
-0.09738321
0.1502519
0.3243071
0.2875082
0.08636618
-0.1552266
-0.2709686
-0.2320832
-0.04511189
0.2430824
0.4614842
0.6072739
0.674552
0.6259912
0.5397789
0.3984669
0.2473206
0.1887186
0.1806232
0.190377
0.1762108
0.03860169
-0.2045039
-0.4902374
-0.7721368
-0.865258
-0.6741738
-0.3967051
-0.2031595
-0.08604193
0.0115372
0.1300398
0.1646725
0.01537958
-0.09549119
-0.001220631
0.1133846
0.189716
0.2605195
0.2796176
0.315786
0.2968742
0.1285867
-0.1123936
-0.3853047
-0.5652333
-0.5443954
-0.4122935
-0.2675903
-0.1227312
-0.01326076
0.07791743
0.2732247
0.5269682
0.7025913
0.8144761
0.886961
0.885461
0.7569246
0.43602
-0.006976004
-0.4127594
-0.7257618
-0.9123502
-0.9239982
-0.7844473
-0.5608963
-0.3542478
-0.1954976
-0.03844218
0.04378237
-0.008531469
-0.1278984
-0.2492909
-0.3306015
-0.3476459
-0.2929762
-0.145985
0.0706282
0.2826276
0.4385913
0.5070115
0.5025154
0.4429553
0.3603185
0.3308486
0.334626
0.2999444
0.2233793
0.1343614
0.04458105
-0.06097014
-0.08745412
0.06994815
0.2197295
0.2398789
0.2439198
0.1943957
0.1098272
0.1034679
0.1126169
0.04753432
-0.1761773
-0.4804752
-0.6596749
-0.7695077
-0.7984537
-0.6546017
-0.4614764
-0.2749706
-0.1063375
0.0211664
0.09032164
0.06881399
0.05049128
0.01662979
-0.1298703
-0.2256241
-0.2069904
-0.1412509
0.01124149
0.1956907
0.4376862
0.7139258
0.836811
0.8171413
0.7423286
0.638979
0.5054965
0.3241912
0.0569955
-0.1860318
-0.2801363
-0.3603698
-0.429747
-0.4683975
-0.5211303
-0.5341228
-0.4998779
-0.3665354
-0.1765805
0.02943417
0.2954818
0.514657
0.5965142
0.5535747
0.3368978
-0.04261789
-0.4205039
-0.7571266
-1.011285
-1.016654
-0.7300845
-0.2649096
0.1372061
0.4019593
0.6121928
0.6896312
0.6283863
0.5186221
0.383452
0.2443463
0.1195685
0.05096104
0.05922044
0.0712259
0.01186033
-0.1159174
-0.225562
-0.2420883
-0.257834
-0.331863
-0.3611183
-0.3200329
-0.2410048
-0.1206363
0.01504853
0.1212094
0.1929854
0.2107466
0.2165093
0.2968907
0.3474121
0.3023425
0.2184624
0.12321
0.02545574
-0.1295082
-0.262015
-0.2568226
-0.1768579
-0.07695707
0.01510817
0.04453909
0.02399739
0.02091267
0.03328048
0.03656408
0.01622267
-0.06066361
-0.1529909
-0.1875019
-0.1566967
-0.08717457
-0.02173593
0.036391
0.08010416
0.0572217
0.03555235
0.0669255
0.08160442
0.04219654
-0.06313651
-0.2221309
-0.3718474
-0.415785
-0.3467866
-0.2077782
0.07081032
0.4392699
0.7079694
0.8074787
0.7110527
0.4653277
0.193875
-0.005205422
-0.08229158
-0.1104328
-0.1285587
-0.1565978
-0.1714194
-0.0946622
-0.04350368
-0.06733879
-0.1223716
-0.2312851
-0.3410686
-0.4303339
-0.473134
-0.4486501
-0.3558702
-0.1819384
-0.03588893
0.03544745
0.0694844
0.1030184
0.2522876
0.5286362
0.7790495
0.8770185
0.8047422
0.6278847
0.3246126
-0.08276106
-0.4306895
-0.6495234
-0.5913298
-0.2646559
0.3942428
0.6435741
0.2121196
0.5885176
-1.570563
-7.033621
-6.47364
1.054023
6.264495
6.417076
4.57453
2.19747
-0.8689423
-3.554214
-4.354423
-3.680223
-2.577828
-1.215726
0.3608226
1.741127
2.564221
2.696429
2.292723
1.688364
1.061886
0.417721
-0.1604524
-0.4577834
-0.3923113
-0.1945276
-0.168811
-0.2297657
-0.07987569
0.2151147
0.3688248
0.3363199
0.299445
0.2744801
0.150363
-0.05608926
-0.3295256
-0.6233016
-0.9136838
-1.271701
-1.656246
-1.984092
-2.218944
-2.266042
-2.001172
-1.458621
-0.8181102
-0.1694732
0.3992867
0.7854061
1.12384
1.54237
1.984032
2.365594
2.571789
2.541553
2.344337
2.057014
1.665213
1.180085
0.6860108
0.2229477
-0.2047908
-0.5429282
-0.75585
-0.9181108
-1.045196
-1.139977
-1.236721
-1.304945
-1.421249
-1.548025
-1.521378
-1.376382
-1.172675
-0.994489
-0.8824034
-0.7623355
-0.6475282
-0.491709
-0.2576098
0.03211289
0.4080211
0.7857204
1.053176
1.184048
1.211334
1.196324
1.151234
1.155461
1.324339
1.553533
1.633226
1.541237
1.295087
0.760655
-0.004532954
-0.7282218
-1.275882
-1.51098
-1.508493
-1.543622
-1.558296
-1.568184
-1.586895
-1.354671
-0.8977395
-0.304104
0.4091235
1.057976
1.563554
1.881003
1.88101
1.582095
1.084226
0.4653759
-0.1127179
-0.5325197
-0.7336454
-0.7069531
-0.6167353
-0.5289747
-0.3888949
-0.2403755
-0.1612545
-0.220659
-0.4260715
-0.6577575
-0.7803649
-0.7759073
-0.6920546
-0.5916223
-0.4563266
-0.2327074
0.03643508
0.378554
0.7394224
0.9735276
1.16043
1.280911
1.17044
0.9339299
0.6929377
0.3734463
0.03659065
-0.2122291
-0.4418754
-0.6131076
-0.6298667
-0.5705809
-0.5269963
-0.4748973
-0.3933733
-0.3613778
-0.3265198
-0.1945078
-0.08241101
-0.005602048
0.143896
0.281102
0.3552262
0.4657393
0.567633
0.595933
0.5656155
0.5034733
0.4603433
0.3558847
0.2104556
0.1715264
0.1557356
0.02704729
-0.227667
-0.5253573
-0.7766756
-0.9698625
-1.104994
-1.140518
-0.977789
-0.6408757
-0.2814133
0.01752804
0.2447146
0.4353711
0.5496869
0.4662647
0.2744181
0.1895846
0.2104853
0.2483882
0.2652099
0.2374374
0.201959
0.1558754
0.07309087
0.01566485
0.04909918
0.1084004
0.08897326
0.02580765
-0.009559827
0.008000436
0.0570731
0.09635215
0.106563
0.05408936
-0.0394704
-0.08465036
-0.07925905
-0.1606217
-0.3214736
-0.4033172
-0.3927121
-0.3115354
-0.138306
0.08770692
0.2610046
0.3149129
0.3180066
0.3507315
0.4046164
0.4964604
0.6067542
0.6232169
0.5761234
0.4398712
0.06625974
-0.2894813
-0.3826745
-0.4539078
-0.6788738
-1.186466
-1.513439
-0.8076401
0.2364371
0.5001685
0.08692333
-0.5074118
-0.8715504
-0.9448322
-0.839644
-0.4181144
0.2556736
0.9046069
1.406157
1.649308
1.516797
1.073367
0.5000318
-0.05209554
-0.5063074
-0.8502657
-0.9832211
-0.8494658
-0.5727742
-0.2072569
0.2244062
0.6440886
0.9644246
1.03975
0.8531743
0.5451622
0.1686953
-0.175978
-0.3885882
-0.5401628
-0.6644194
-0.7450915
-0.7590889
-0.699369
-0.6119006
-0.515727
-0.3769523
-0.1682282
0.03124795
0.165396
0.2853139
0.4410747
0.6232321
0.7230517
0.6959662
0.6369665
0.5631464
0.3988456
0.1726334
0.0302093
-0.001946425
-0.02468776
-0.07718435
-0.2164943
-0.4088778
-0.5587612
-0.7326385
-0.8844597
-0.8663938
-0.6353012
-0.2920089
-0.005331782
0.2564959
0.4769061
0.4973324
0.3739026
0.2465944
0.1203511
-0.02604444
-0.0996277
-0.02533103
0.1125124
0.1910076
0.1409199
0.03669812
0.06001371
0.2011394
0.3140959
0.3942872
0.412869
0.3008087
0.1268759
0.002633882
0.01250118
0.09703805
0.08919508
-0.02544747
-0.107418
-0.131245
-0.2150724
-0.3372102
-0.4029241
-0.4289875
-0.4218717
-0.3682169
-0.3106095
-0.2476256
-0.1370155
-0.02449809
0.06555104
0.187737
0.291931
0.3290862
0.3374847
0.2598879
0.116184
0.009218584
-0.04319997
0.01042141
0.1315323
0.2134796
0.2383657
0.2056988
0.1577074
0.1133616
-0.02166086
-0.3665515
-0.8127507
-0.8770304
-0.4014965
0.1895534
0.6212789
0.646803
0.04244839
-1.01858
-2.091532
-2.635279
-2.6065
-2.133334
-0.8793362
1.047305
2.86494
4.091454
4.682113
4.561158
3.683039
2.253971
0.6933523
-0.5397331
-1.262546
-1.527271
-1.414948
-1.15548
-1.035961
-1.157773
-1.460758
-1.87664
-2.286738
-2.515535
-2.45745
-2.052095
-1.346976
-0.4914543
0.328122
0.9798306
1.3661
1.342524
1.123489
1.125259
1.294773
1.367722
1.339801
1.259536
1.073997
0.77811
0.3711361
-0.1143926
-0.4910862
-0.6529108
-0.6959474
-0.6533874
-0.4557359
-0.1860061
-0.0621736
-0.09604779
-0.158674
-0.2431126
-0.273689
-0.1551324
0.05810729
0.3091259
0.4999986
0.5121448
0.383634
0.221457
0.05461196
-0.1069862
-0.2417725
-0.2924839
-0.2743526
-0.3115237
-0.3510972
-0.3476596
-0.381733
-0.3936934
-0.3395918
-0.2315537
-0.0729004
0.02587624
0.05381779
0.0903586
0.06424799
-0.08490252
-0.246269
-0.2321377
-0.05316568
0.08859635
0.1386825
0.1791804
0.2192396
0.2396643
0.2850425
0.3459553
0.3898561
0.4430002
0.4919208
0.5039509
0.3887994
0.1492896
-0.04728136
-0.1849866
-0.2224282
-0.105073
-0.00589942
0.0460997
0.1906498
0.4023239
0.5639966
0.6194354
0.5044502
0.1769433
-0.2659387
-0.68774
-0.9732501
-1.097618
-1.120804
-1.020147
-0.8145763
-0.589132
-0.4137697
-0.308714
-0.2016234
-0.06150137
0.08430929
0.159995
0.1921283
0.246589
0.3260672
0.4875188
0.6017891
0.6751561
0.6777962
0.5984232
0.61903
0.2978826
-0.058661
-0.04070368
-0.1209162
0.03462839
0.3259651
0.3306439
0.2751871
0.1622228
-0.006646333
-0.2417113
-0.5052925
-0.6410952
-0.6285498
-0.4907313
-0.2641597
-0.03882698
0.1071927
0.2012939
0.2355259
0.2327501
0.2452375
0.2078526
0.1300094
0.03250367
-0.04531202
-0.0213295
-0.00423888
-0.0428552
-0.06078603
-0.1119239
-0.2031101
-0.2427439
-0.1969549
-0.1268242
-0.09776362
-0.08081681
-0.06827027
-0.09258811
-0.1579072
-0.1915255
-0.1550275
-0.1022489
-0.04558744
-0.01127054
0.01766591
0.08344926
0.1873812
0.2831631
0.2963175
0.3069375
0.323213
0.2502664
0.2031992
0.2627173
0.3263776
0.3384756
0.2417421
-0.02987507
-0.3370853
-0.5356373
-0.6180614
-0.562926
-0.4260876
-0.2411766
0.009514245
0.2616323
0.432682
0.4689489
0.3706025
0.1799936
0.02112817
-0.07076372
-0.1470919
-0.1490694
-0.09140889
-0.07848295
-0.1141847
-0.09828194
-0.04152202
-0.02409541
-0.04577199
-0.102926
-0.166829
-0.20596
-0.1979895
-0.1717215
-0.1447062
-0.07564636
0.01275571
0.1068056
0.1922432
0.257313
0.2769327
0.2184556
0.1415439
0.06824517
0.009843887
0.0259211
0.08486012
0.1004624
0.09500171
0.0590719
-0.04940673
-0.131177
-0.1772028
-0.2013183
-0.1410822
-0.04659621
0.03063736
0.1033266
0.1713173
0.211977
0.2464605
0.2380794
0.1150692
-0.001533678
-0.02479626
-0.005775338
-0.03144529
-0.1232844
-0.1398729
-0.07783066
-0.002461133
0.0784934
0.06596085
-0.02284221
-0.1261401
-0.2812928
-0.4056529
-0.4408118
-0.3841641
-0.2409996
-0.1268207
0.06125258
0.1841718
0.215915
0.2430498
0.28301
0.6202138
0.06443159
-0.4927753
0.7207511
0.7816527
-0.9301983
-0.795873
1.318825
2.06899
0.9683785
-0.1753079
-1.305316
-2.19796
-2.248508
-1.801577
-1.257064
-0.6369673
0.06915473
0.6705846
0.98621
0.7698089
0.6301832
1.051211
1.240862
1.21007
1.314082
1.282789
1.023021
0.5919244
0.09409842
-0.4651048
-0.9078429
-0.999638
-0.8827236
-0.7015302
-0.5229191
-0.3918529
-0.2909558
-0.2557004
-0.2373555
-0.2109662
-0.1941456
-0.1185157
-0.0523066
-0.007910999
0.1392336
0.3260632
0.4196041
0.4250539
0.3856079
0.2920977
0.07774533
-0.2145137
-0.4124172
-0.4667791
-0.3792883
-0.2470507
-0.1478435
-0.1607602
-0.4307266
-0.8957914
-1.60676
-1.652244
-0.07645906
1.649236
2.141001
1.669007
0.8359147
0.1457833
-0.3357483
-0.4828633
-0.2154587
0.1250638
0.4613691
0.7670173
0.8091025
0.634698
0.4245155
0.2289036
0.09033152
-0.06866205
-0.3893815
-0.715938
-0.8180435
-0.6720602
-0.2785861
0.1967041
0.4916602
0.5946208
0.5693519
0.3965824
0.03373332
-0.406862
-0.6895841
-0.7471293
-0.6689637
-0.6624636
-0.8267983
-0.9780236
-1.017049
-1.013624
-0.9076419
-0.5936674
-0.2013748
0.2787522
1.013904
1.199886
0.2245311
-0.6783506
-0.6916387
-0.1804257
0.7144908
1.747836
2.546476
2.916321
2.78661
2.189055
1.353056
0.5742303
-0.1173553
-0.6963782
-1.090118
-1.363806
-1.528531
-1.542417
-1.433877
-1.206594
-0.9664775
-0.8541579
-0.8568118
-0.9247747
-0.9002889
-0.7565196
-0.6507769
-0.4784458
-0.1549185
0.1447563
0.3709177
0.5375471
0.6347673
0.699096
0.6523863
0.5265187
0.4370499
0.3386892
0.2926873
0.3509303
0.3702306
0.3392956
0.3341415
0.339238
0.3631065
0.40099
0.4316965
0.3969816
0.2486386
0.121612
0.07395726
-0.02823242
-0.1985532
-0.335972
-0.4499183
-0.5599327
-0.6355382
-0.6572785
-0.5221844
-0.2276749
0.07474838
0.3109046
0.4892102
0.6017688
0.5821825
0.4483728
0.2936164
0.1060648
-0.08817407
-0.222804
-0.3618076
-0.4952503
-0.5327365
-0.4822504
-0.3704244
-0.2479746
-0.1324664
-0.06394146
-0.1117635
-0.1262562
-0.09427867
-0.1369314
-0.1281377
-0.07643544
-0.09888574
-0.1381673
-0.155521
-0.1553665
-0.1322294
-0.08679837
-0.04207164
-0.01549892
0.06238762
0.2043054
0.3289939
0.4121609
0.4806342
0.5481808
0.5956023
0.6493379
0.6981193
0.6487427
0.4837644
0.2265902
-0.04022397
-0.19158
-0.2585153
-0.3251837
-0.3635782
-0.3100415
-0.1791112
-0.09336754
-0.07402599
-0.04441439
-0.03743153
-0.06703459
-0.08918028
-0.102193
-0.1714386
-0.3550091
-0.494242
-0.4306497
-0.305464
-0.2486567
-0.1848624
-0.09352373
-0.0459228
-0.01781512
0.01248212
0.01251056
0.02341986
0.07431565
0.2058547
0.3994235
0.5152381
0.4953
0.3025481
0.03734109
-0.1305897
-0.2168579
-0.2127078
-0.1168037
0.002975606
0.1082563
0.1250959
-0.007066667
-0.1907312
-0.2717793
-0.263573
-0.2352514
-0.1323691
0.05770669
0.2195711
0.326562
0.417235
0.4380308
0.3950922
0.4058044
0.5329174
0.7407225
0.8980917
0.8975229
0.7921013
0.6241858
0.3407768
-0.07613902
-0.561324
-1.005381
-1.432212
-1.912959
-2.294766
-2.470365
-2.512311
-2.330015
-1.794683
-1.021869
-0.2150166
0.4745338
0.9761544
1.339766
1.716517
2.128024
2.412785
2.56664
2.628653
2.508056
2.187609
1.727945
1.179587
0.5814451
-0.03866229
-0.6383488
-1.084688
-1.315981
-1.450884
-1.51953
-1.499218
-1.427117
-1.36866
-1.396706
-1.370671
-1.213744
-1.0253
-0.8169335
-0.6360437
-0.4756757
-0.328351
-0.2139182
-0.05614293
0.1687663
0.4497002
0.7453136
1.013356
1.266907
1.453542
1.506397
1.487856
1.490106
1.518382
1.52152
1.401945
1.079081
0.5425946
-0.1982021
-1.031731
-1.709252
-2.101941
-2.227123
-2.120556
-1.896215
-1.64903
-1.376705
-0.9850706
-0.3911666
0.3524939
1.159546
1.860001
2.262284
2.31623
1.996986
1.318787
0.4406348
-0.3512855
-0.8561215
-1.061248
-0.9278618
-0.5447822
-0.1943305
-0.04806761
-0.1285275
-0.2808269
-0.3460483
-0.3497632
-0.3183833
-0.2297166
-0.1241093
-0.0646049
-0.07059203
-0.1689533
-0.2852036
-0.2811441
-0.1331099
0.08788636
0.3130825
0.5217729
0.6296182
0.6443245
0.6479641
0.5793353
0.420534
0.1977749
-0.08628769
-0.3244238
-0.4388648
-0.4899714
-0.4453573
-0.3155255
-0.2436604
-0.1932084
-0.09855694
-0.006052223
0.01130235
-0.05299722
-0.02973607
0.1003045
0.1518163
0.1390025
0.1543766
0.1689949
0.1653429
0.1727268
0.1552762
0.05246031
-0.03971538
-0.05514328
-0.07765
-0.1301752
-0.1214878
-0.04595772
0.03631267
0.2148881
0.3983759
0.4200521
0.3795852
0.3037587
0.1950099
0.1128223
0.07782333
0.09395448
0.07466082
0.03705428
0.01616579
-0.1397383
-0.4002231
-0.6323997
-0.8362206
-0.935324
-0.939286
-0.93976
-0.9044281
-0.746831
-0.448805
-0.146317
0.03139635
0.09405667
0.1661913
0.3444457
0.5875553
0.7891856
0.89752
0.9446854
0.9233903
0.8432382
0.7905722
0.7659981
0.6640406
0.454201
0.2277838
0.03087101
-0.1589893
-0.3841494
-0.6194941
-0.727965
-0.7206033
-0.6586961
-0.4784669
-0.2665144
-0.1795964
-0.191397
-0.2091381
-0.189185
-0.1276031
-0.02637327
0.1007475
0.1876205
0.2032724
0.1867335
0.2064889
0.242659
0.1681734
0.05908005
0.04943797
0.09968518
0.1729758
0.1796995
0.09315778
0.0430841
0.006828996
-0.1094821
-0.2355809
-0.3479358
-0.4257168
-0.3735083
-0.3216633
-0.3160598
-0.2224463
-0.1234333
-0.04505857
0.06124306
0.1568325
0.2968424
0.4553617
0.5228439
0.5339932
0.4739257
0.2990627
0.1684409
0.1555922
0.1912095
0.1885275
0.0623507
-0.08674116
-0.1764448
-0.2518506
-0.3461842
-0.4355257
-0.5042153
-0.6164518
-0.7003935
-0.6421851
-0.4464316
-0.1589651
0.09572031
0.2476242
0.297908
0.2708071
0.2492994
0.2097542
0.1100814
0.02141551
0.006247295
0.08886093
0.2184822
0.3596134
0.4761344
0.4453671
0.3200425
0.2225146
0.1829689
0.1952977
0.1922684
0.1550267
0.09169952
-0.008735866
-0.1579072
-0.2828466
-0.3361638
-0.3915234
-0.412457
-0.3631643
-0.3034449
-0.2830052
-0.2722589
-0.1746574
-0.03162577
0.08884829
0.1420112
0.07653975
-0.04894162
-0.1616224
-0.207477
-0.1869792
-0.1083993
0.03036939
0.2152513
0.3857744
0.4096118
0.3336538
0.2240289
0.07459608
-0.01494806
-0.05693062
-0.08374974
-0.06283521
-0.04782116
-0.05578264
-0.05052603
-0.005480367
0.08139552
0.2221141
0.3713104
0.3970118
0.3570678
0.3028813
0.2325307
0.2681366
0.2951157
0.1961454
0.07334795
-0.05018624
-0.1643971
-0.2095297
-0.2324065
-0.339018
-0.4487273
-0.3845675
-0.196062
-0.2175087
-0.5340841
-0.9058466
-1.211227
-1.349
-1.396514
-1.14153
-0.1507352
0.8303406
0.7312734
-0.3593369
-1.493694
-2.009769
-2.130677
-1.708623
-0.1893064
1.940735
3.813975
5.201689
6.055119
6.118419
5.137152
3.27005
1.211306
-0.4780789
-1.738224
-2.531629
-2.839877
-2.830469
-2.73761
-2.781601
-2.940805
-3.067938
-3.034073
-2.722234
-2.090121
-1.130288
-0.1500046
0.5250558
0.9148632
1.066944
1.114876
1.038344
0.9368252
1.089035
1.157802
1.038065
0.9892129
0.9749003
0.9675221
0.7168087
0.2534049
0.004458662
-0.06719695
-0.1123491
-0.1690918
-0.2795868
-0.3457655
-0.3424201
-0.3554287
-0.3266652
-0.1557846
0.08459626
0.2884059
0.4347219
0.5630296
0.6178313
0.4633016
0.2188779
0.08209055
0.02294079
0.002279147
0.03214487
0.1045584
0.1838848
0.219727
0.2467847
0.2414078
0.1382154
-0.06549175
-0.3509487
-0.6647058
-0.9719249
-1.15996
-1.160366
-1.047256
-0.908586
-0.830971
-0.7686549
-0.7232341
-0.7119921
-0.5986426
-0.4113035
-0.1728875
0.1789971
0.5666609
0.9596027
1.337664
1.546731
1.474821
1.220002
0.8996059
0.5303824
0.2091577
0.04024567
0.003117603
0.01704794
0.05208386
0.1000606
0.1311526
0.1328883
0.1101718
0.1118327
0.06974937
-0.06398181
-0.1507384
-0.1709298
-0.1475009
-0.07977203
-0.004741257
0.06022285
0.04087577
-0.02283053
-0.08618652
-0.2412185
-0.4507383
-0.6839774
-0.9051617
-1.010382
-1.059703
-1.077516
-1.001815
-0.8212826
-0.4934103
-0.05746305
0.33963
0.6502918
0.8835343
0.9883123
0.9764708
0.9150026
0.7951533
0.626132
0.5134027
0.4411528
0.3202724
0.1981377
0.07885228
-0.03317476
-0.03761777
0.01934569
0.05328078
0.1011318
0.07067883
-0.05363973
-0.09190078
-0.1248792
-0.2535237
-0.3720731
-0.4675226
-0.506255
-0.4096057
-0.2512138
-0.1587481
-0.1353157
-0.1108117
-0.1146491
-0.1599881
-0.1073953
0.07869509
0.2060588
0.1831131
0.08506283
-0.07945438
-0.2994807
-0.5133423
-0.6623984
-0.6950433
-0.5903001
-0.3640001
-0.04998875
0.3179675
0.6424428
0.8462162
0.9412841
0.9315372
0.809978
0.6146598
0.4265684
0.2925013
0.1870791
0.08563875
0.03661556
0.0455608
0.06353611
0.07707696
0.03123648
-0.0921054
-0.2343408
-0.3447214
-0.3961574
-0.4189592
-0.421726
-0.3817357
-0.3218746
-0.262831
-0.1832745
-0.09337724
-0.06512411
-0.0369571
0.04364224
0.05663596
-0.03284884
-0.3004074
-0.6680996
-0.7412806
-0.4486361
-0.002653227
0.4114008
0.5915063
0.4812791
0.2112077
0.009519552
0.007207436
0.1046441
0.1772213
0.1709574
0.08642174
-0.01148442
-0.07777956
-0.07685543
0.005873953
0.1341285
0.2663631
0.3594818
0.454863
0.6010287
0.7310504
0.8240275
0.8715156
0.7911291
0.5741507
0.2421673
-0.2120267
-0.6985638
-1.058077
-1.269698
-1.395526
-1.341558
-1.113249
-0.8715634
-0.6037053
-0.3121405
-0.06518063
0.1459023
0.2780407
0.2784261
0.2182878
0.1533254
0.02147676
-0.1144666
-0.1060319
0.06301702
0.3047802
0.4897484
0.6115354
0.726361
0.7899056
0.7955969
0.7886123
0.7587863
0.6569052
0.4587907
0.2325449
0.01771397
-0.2219324
-0.4402395
-0.5577227
-0.489104
-0.295302
-0.2324575
-0.2884254
-0.2692911
-0.1359928
0.01213103
-0.1183314
-0.5667427
-1.00213
-1.317603
-1.385846
-1.021341
-0.3785816
0.3625322
1.013336
1.324728
1.315375
1.091454
0.6974153
0.3084691
0.0535068
-0.1042346
-0.2279822
-0.3422842
-0.4401108
-0.5437666
-0.5955466
-0.4803255
-0.2031193
0.1232653
0.3700102
0.4744024
0.420923
0.2874256
0.1805632
0.102437
0.06927259
0.08674242
0.125291
0.1916273
0.2503593
0.2572567
0.1885961
0.06444408
-0.021658
-0.07795699
-0.1298632
-0.1488334
-0.1955814
-0.2822063
-0.3195076
-0.3066074
-0.325322
-0.3250343
-0.2869039
-0.2756386
-0.1971449
-0.04185537
0.09719491
0.2140575
0.2994672
0.3706009
0.4035052
0.3031679
0.1334751
0.01412499
-0.02740349
0.01016407
0.06167162
0.1101429
0.1165116
0.01467279
-0.1286906
-0.2951104
-0.3981464
-0.3359399
-0.2375616
-0.1700743
-0.1135745
-0.08528078
-0.05429939
0.00507383
0.09599417
0.1851577
0.2428802
0.2808956
0.2239088
0.008889064
-0.23806
-0.3568575
-0.2942948
-0.07249856
0.2265082
0.5197456
0.7371683
0.7408271
0.4802317
0.07234927
-0.3303139
-0.5679532
-0.6369604
-0.6328163
-0.5587563
-0.3876341
-0.1808624
-0.03386404
0.1101054
0.2717107
0.3815163
0.4230335
0.4558411
0.5372345
0.5791878
0.5540849
0.4356377
0.2343363
0.07349343
-0.1279328
-0.3456406
-0.4627385
-0.5047231
-0.4260648
-0.2819579
-0.1813781
-0.1592421
-0.2786584
-0.4820541
-0.6055061
-0.616972
-0.556569
-0.35942
-0.04021355
0.2484295
0.5087092
0.7717716
1.0158
1.281474
1.286783
0.7121418
-0.1478807
-0.8089207
-1.066315
-0.9818433
-0.7101811
-0.2785734
0.1635886
0.3432489
0.2510701
-0.002546151
-0.2954393
-0.4534437
-0.43891
-0.3089809
-0.05596668
0.2370637
0.4330414
0.5128181
0.494485
0.4349052
0.3175748
0.1239456
-0.04996659
-0.1459189
-0.1174629
0.01513
0.1279521
0.1880696
0.2538059
0.2855634
0.3193272
0.4113351
0.3339013
-0.05091881
-0.5310935
-0.8459053
-0.924247
-0.789296
-0.4751987
-0.06655282
0.2880869
0.4346653
0.4049022
0.2637149
0.04810175
-0.1363668
-0.2676454
-0.2865266
-0.1004959
0.2798778
0.6332464
0.6353887
0.3207813
-0.09425378
-0.443347
-0.5630857
-0.459992
-0.2461267
-0.08482549
-0.08077396
-0.1448033
-0.2396916
-0.3673739
-0.4163256
-0.3133212
-0.05565306
0.3298024
0.7089929
0.9213782
0.9117197
0.6978239
0.4028186
0.1609624
0.04190153
0.01919069
-0.01804601
-0.03906973
-0.01360986
-0.01875423
-0.09690574
-0.1903214
-0.2477255
-0.3214376
-0.3743555
-0.3827779
-0.3652269
-0.2862039
-0.2126963
-0.1947456
-0.1571224
-0.06025876
-0.03033984
-0.08650021
-0.01680849
0.1895405
0.3307829
0.3659494
0.407066
0.4056082
0.2287916
-0.02516719
-0.2325125
-0.3907537
-0.4978727
-0.63311
-0.7646961
-0.7475012
-0.6231228
-0.4174421
-0.1088575
0.2208334
0.4812947
0.6179802
0.6852187
0.7245983
0.703446
0.6722292
0.6628757
0.6902742
0.7273853
0.6956211
0.6460238
0.6102912
0.5612214
0.4698142
0.3285553
0.235175
0.1963195
0.1293186
0.02625151
-0.1202613
-0.3080062
-0.5313174
-0.8546532
-1.220846
-1.45655
-1.61157
-1.895441
-2.233254
-2.380421
-2.325498
-1.978461
-1.238515
-0.3874344
0.3254626
0.854272
1.158915
1.294192
1.402391
1.538021
1.715809
1.954023
2.125736
2.144097
2.036746
1.753619
1.311471
0.7733377
0.1480084
-0.4856129
-1.016217
-1.322145
-1.351622
-1.150119
-0.7555497
-0.317443
-0.02109597
0.09996175
0.06428797
-0.1060424
-0.2795001
-0.430867
-0.6871062
-0.9043756
-0.9113163
-0.7800488
-0.5393016
-0.2222544
0.09404378
0.3953809
0.6318515
0.7716005
0.8213575
0.7057607
0.4509697
0.1327992
-0.2516855
-0.5700147
-0.7147275
-0.7320678
-0.705128
-0.7205281
-0.7972047
-0.8134689
-0.6396376
-0.3894664
-0.03671343
0.5327589
1.079922
1.493271
1.801188
1.930121
1.884305
1.65727
1.260568
0.7928193
0.2691685
-0.2985115
-0.7562065
-1.022784
-1.115325
-1.095714
-1.088154
-1.120126
-1.141644
-1.11751
-1.042102
-0.8757079
-0.6129653
-0.3918538
-0.2532391
-0.1306765
-0.0490898
-0.01248954
0.009542214
0.01863395
0.06525491
0.1929077
0.4133399
0.7156546
1.003732
1.19888
1.295457
1.269226
1.12313
0.9359112
0.7594067
0.5471057
0.2361798
-0.1479487
-0.5097061
-0.7618287
-0.8818763
-0.8696575
-0.7763175
-0.6766253
-0.5698098
-0.5349004
-0.511708
-0.3770477
-0.267741
-0.08417506
0.2119234
0.3804444
0.4724297
0.5403398
0.5176892
0.3661834
0.1404099
-0.02929139
-0.191875
-0.3491829
-0.4303088
-0.4061916
-0.3184254
-0.283685
-0.250127
-0.1861803
-0.1092176
-0.01162764
0.1040081
0.2656574
0.3803233
0.4357617
0.4442955
0.357141
0.2419528
0.0264296
-0.2460014
-0.3774398
-0.3462398
-0.2181382
-0.1777783
-0.02888128
0.2575694
0.4376835
0.7558702
0.9140523
0.7620817
0.6865514
0.4876963
0.02399386
-0.5556697
-0.9809836
-1.008848
-0.8078064
-0.5896299
-0.3668114
-0.1514648
0.02752324
0.1980328
0.321468
0.2831482
0.1114894
-0.1087431
-0.3316784
-0.4404177
-0.3698369
-0.2109201
-0.0661055
0.09477813
0.3420318
0.5405412
0.561631
0.5290646
0.4623362
0.3186733
0.182584
0.06508501
-0.03090058
-0.1150071
-0.2393703
-0.3853453
-0.5098451
-0.5880111
-0.6530457
-0.706436
-0.6606112
-0.5046309
-0.3035356
-0.1090593
0.03364464
0.101787
0.1744715
0.3572612
0.6085659
0.8207728
0.9454159
1.00283
1.002346
0.8804371
0.6026493
0.2504648
-0.05420552
-0.2533663
-0.334214
-0.3595842
-0.368719
-0.3247324
-0.2333391
-0.06066447
0.1185822
0.1314496
-0.01678194
-0.2193571
-0.3381234
-0.3358471
-0.3086957
-0.3033856
-0.3298711
-0.3747312
-0.3657409
-0.3035323
-0.292249
-0.2818355
-0.1870341
-0.0924779
-0.04563729
-0.009493424
0.05385786
0.1118686
0.1361093
0.1773078
0.2257807
0.2879689
0.3481576
0.3157507
0.2498286
0.2053539
0.1521335
0.1339751
0.2021564
0.3212054
0.3676493
0.2705986
0.1263584
-0.02993176
-0.2374015
-0.3650641
-0.4673029
-0.5024722
-0.6062984
-0.6299559
-0.8863183
-3.037755
-3.801773
-0.3230466
2.960742
4.390905
4.6542
3.195764
1.290725
-0.02882482
-0.6004936
-0.6202423
-0.608616
-0.692597
-0.857394
-1.060421
-0.9820154
-1.036521
-0.9602533
-0.5697993
-2.159312
-3.840859
-1.690691
1.76872
3.05362
2.748009
1.878196
0.06403179
-1.72888
-1.973162
-1.132218
-0.01748943
1.111674
1.940158
2.228921
2.042243
1.552828
0.9287667
0.2820346
-0.3929075
-0.9147964
-1.09569
-1.038238
-0.9512801
-0.9792401
-1.042095
-1.030242
-0.9400812
-0.6604949
-0.2939542
-0.005453907
0.09486021
-0.2083974
-0.4085065
-0.1611027
0.1946678
0.8431868
1.451172
1.143316
-0.1873583
-2.003112
-3.216228
-3.253606
-2.454158
-0.8453136
1.48894
3.777945
5.365917
6.04533
5.77452
4.716734
3.147341
1.37093
-0.3176648
-1.69059
-2.63319
-3.060906
-3.061787
-3.010149
-2.873208
-2.826
-2.967213
-3.332824
-4.129819
-3.769667
-1.923318
-0.2063353
1.308345
2.56757
3.094011
2.951767
2.388662
1.677883
0.9843435
0.4804215
0.2667701
0.3355519
0.5474983
0.7320815
0.8531045
0.8734927
0.8242242
0.7483453
0.4736191
-0.1394838
-0.83355
-1.051831
-0.6922727
-0.3007229
-0.1624028
-0.2038534
-0.4099409
-0.5922362
-0.5646381
-0.4147853
-0.1499899
0.2141766
0.4595931
0.54389
0.5035657
0.3654817
0.2510361
0.1180954
-0.01751563
-0.1273779
-0.3092179
-0.4605987
-0.5093678
-0.4524681
-0.2332671
0.02620201
0.09347314
-0.1019813
-0.3895482
-0.5602075
-0.5742393
-0.4998666
-0.3672611
-0.190536
0.008272394
0.1718312
0.2529712
0.2838579
0.2715792
0.2244218
0.1542881
0.06411521
-0.01801121
-0.05310138
0.02979266
0.1663103
0.2737098
0.4138327
0.4902954
0.4688012
0.4470836
0.3307967
0.2227674
0.2459014
0.2827052
0.3961296
0.5361943
0.5205231
0.3967437
0.2191754
-0.02146192
-0.2893675
-0.4889233
-0.5896442
-0.6750591
-0.6914535
-0.5881455
-0.5014883
-0.445787
-0.3955437
-0.4098816
-0.4431435
-0.4664505
-0.4815416
-0.4165507
-0.2518592
-0.07575008
0.1035242
0.3217025
0.4865901
0.5272219
0.4304172
0.299681
0.2685309
0.2730191
0.2180697
0.09162369
-0.02210077
-0.05358513
-0.03691407
0.03226621
0.1860424
0.3649838
0.4386635
0.3970411
0.3146668
0.2259266
0.1719411
0.1580202
0.1829587
0.1901317
0.07350532
-0.1075126
-0.2216933
-0.2836125
-0.3714713
-0.4802265
-0.5855881
-0.6649013
-0.7090487
-0.7186751
-0.6148799
-0.3707927
-0.05900126
0.1990663
0.2696435
0.2265754
0.2250497
0.2901477
0.396098
0.3909915
0.2578819
0.1863783
0.2082002
0.3300809
0.4982286
0.5187486
0.3102782
0.02844481
-0.08882163
-0.08899916
-0.1295626
-0.1777779
-0.1824537
-0.1052114
0.04954347
0.1473748
0.1235801
0.03725049
-0.1125249
-0.2600563
-0.2996392
-0.2781836
-0.1713919
0.005026481
0.125463
0.2478272
0.3411976
0.2380464
0.03170172
-0.1097476
-0.1600051
-0.1114522
-0.06631919
-0.1337163
-0.2875486
-0.5151905
-0.7231976
-0.7940417
-0.7550111
-0.653145
-0.5129836
-0.3287207
-0.06722156
0.2317832
0.5001178
0.7369633
0.917306
0.9643902
0.8547818
0.6546327
0.4560559
0.2652635
0.1106396
0.09093631
0.1294303
0.08782259
0.003290856
-0.09319315
-0.1523165
-0.03806683
0.1476431
0.1809176
0.08706257
0.02736403
0.0284298
-0.04475881
-0.2167034
-0.3895365
-0.5440259
-0.6496931
-0.6180288
-0.4605845
-0.3008586
-0.1638286
0.02164145
0.2623844
0.3913663
0.3250863
0.2802012
0.2403151
0.1395021
0.1657149
0.261814
0.2729913
0.1244528
-0.05747294
-0.09723544
-0.1724844
-0.1916342
-0.2136669
-0.3114094
-0.2444139
-0.3788433
-0.4099406
-1.315842
-3.566849
-3.394733
-0.3829984
2.486123
4.292009
4.499642
3.322481
1.565387
-0.1528867
-1.247202
-1.727848
-1.769094
-1.49228
-1.012071
-0.3951309
0.193728
0.5079581
0.5062858
0.3875948
0.2520589
0.1315249
0.07964984
0.07991291
0.07825366
0.05943836
0.02453427
-0.03065699
-0.07033767
-0.1117238
-0.1558097
-0.1580459
-0.2435631
-0.4348497
-0.4771921
-0.3225789
-0.1587504
-0.01881697
0.1261812
0.244191
0.2947415
0.2287064
0.1063494
0.0180324
-0.005469233
0.008572877
-0.01921124
0.00709609
0.1477099
0.2070383
0.1120472
0.03041867
0.05421223
0.1196836
0.1852511
0.166128
0.0003263513
-0.2510771
-0.4829973
-0.5726348
-0.5370393
-0.3882251
-0.1629737
0.02558678
0.1956587
0.2747149
0.2120354
0.1501928
0.2393153
0.4377617
0.527898
0.4503179
0.2634341
-0.01368937
-0.2414939
-0.3017827
-0.3235541
-0.340278
-0.2669442
-0.1718335
-0.1198956
-0.06066621
0.03658203
0.06821167
0.03522251
0.02063066
0.001171707
0.03586981
0.1590172
0.2222926
0.1500408
0.07607435
0.07799936
0.1298774
0.2269364
0.2637505
0.1873288
0.1349277
0.1447803
0.08967029
-0.03932849
-0.1167469
-0.1625339
-0.2155749
-0.2035275
-0.1597442
-0.09519747
-0.02597518
-0.02938092
-0.07533833
-0.1611013
-0.229433
-0.2416462
-0.246102
-0.2152462
-0.1824201
-0.1704117
-0.2289058
-0.3599866
-0.4346636
-0.448375
-0.4173617
-0.3052675
-0.06369463
0.197012
0.4353076
0.7446394
1.022269
1.285639
1.204156
0.7158107
0.2419755
-0.09022297
-0.1257742
-0.4307628
-0.006503783
1.180071
0.2761898
-1.148849
-1.059847
-0.8576111
-0.7368277
-0.5313627
-0.3301856
-0.06179607
0.3308167
0.8116996
0.9855596
0.7581224
0.3219272
-0.181918
-0.6330938
-0.9244737
-0.9920773
-0.8022387
-0.4678332
-0.1410127
0.1664168
0.4179818
0.6177243
0.7547923
0.7440138
0.6334034
0.3483309
-0.08494908
-0.3025636
-0.274663
-0.1766696
-0.03930269
0.09896214
0.2127403
0.2384898
0.1693421
-0.04970733
-0.3480987
-0.3684289
-0.2799171
-0.3743173
-0.4039685
-0.4395734
-0.5560262
-0.3470851
0.008621496
0.07296878
0.122431
0.2403403
0.1786943
0.251766
0.612984
0.8974996
0.9157943
0.6469014
0.3866876
0.3349869
0.1330274
-0.09259468
-0.2142734
-0.5558349
-0.8295696
-0.8512563
-0.7224334
-0.3020309
0.1921354
0.3564021
0.2150495
0.03709068
-0.001357399
0.02189583
-0.1654195
-0.3954562
-0.392307
-0.3364352
-0.2648914
-0.1557414
-0.06310654
0.09669924
0.2061932
0.2658234
0.4469756
0.5285051
0.34395
0.06399181
-0.1430279
-0.2159886
-0.1464764
0.06993915
0.3607448
0.5287102
0.5377681
0.4935492
0.1666355
-0.2397478
-0.3672397
-0.6569493
-0.8057483
-0.4454164
-0.2011154
-0.04058407
0.144666
0.1204715
0.1295561
0.1295595
-0.1026253
-0.2341287
-0.0870299
0.05254876
0.06956528
-0.01397722
-0.2135619
-0.4457849
-0.4850843
-0.241167
0.05007121
0.2717415
0.4544474
0.6529176
0.885084
0.9698936
0.882938
0.7365485
0.5213042
0.2234825
-0.01653332
-0.1109678
-0.2445751
-0.4053276
-0.4850153
-0.5703133
-0.5433889
-0.5596647
-0.8195627
-0.8033164
-0.3784766
0.03825169
0.3311825
0.5680918
0.8254961
0.9426178
0.7436884
0.3835608
0.02602136
-0.3384803
-0.7931175
-1.309798
-1.693106
-1.730933
-1.466316
-1.134618
-0.8033144
-0.4508849
-0.05462709
0.314777
0.5239127
0.7099632
1.047819
1.436552
1.767846
2.044654
2.174908
2.077107
1.753684
1.25573
0.7173008
0.1845121
-0.3599606
-0.876881
-1.308179
-1.577706
-1.631982
-1.535126
-1.417136
-1.247584
-0.9335762
-0.5292083
-0.1156124
0.1477874
0.1038376
-0.1206665
-0.3620627
-0.4961321
-0.3471613
-0.06229951
0.2034608
0.5450095
0.8305128
1.031764
1.341016
1.580277
1.380027
0.7265778
-0.1487118
-1.082944
-1.868926
-2.33783
-2.472053
-2.22785
-1.63868
-0.7776955
0.2363481
1.195734
2.103514
2.931198
3.475394
3.63557
3.489062
3.181913
2.495281
1.137758
-0.5027127
-1.810563
-2.652187
-3.01094
-2.763597
-2.157234
-1.615234
-1.238393
-0.9927532
-0.7144147
-0.2126473
0.1166376
-0.05157448
-0.4454466
-0.9330907
-1.275983
-1.28557
-1.199769
-0.8643051
-0.2046079
0.2544994
0.5518863
1.158221
1.764938
1.960891
1.933564
1.68969
1.101804
0.3661273
-0.2943965
-0.7987818
-1.038019
-0.831484
-0.3138418
0.02922928
0.1753663
0.4603222
0.659254
0.581916
0.5102795
0.5336466
0.630893
0.7039842
0.6783434
0.5629979
0.2965414
0.05795436
-0.0928924
-0.2924816
-0.4352793
-0.4658511
-0.4936264
-0.4770055
-0.33107
-0.1581983
-0.02427075
0.0175936
-0.1325704
-0.3324397
-0.4338762
-0.4761932
-0.4731279
-0.4592597
-0.4372827
-0.3917853
-0.3939701
-0.4129632
-0.3605733
-0.2652909
-0.1225896
0.08487093
0.2402354
0.3620872
0.4750088
0.4983087
0.504035
0.4260545
0.2065477
0.008162621
-0.08978721
-0.1446533
-0.3038578
-0.5376063
-0.6001242
-0.3967636
-0.1383327
-0.02344766
0.07102065
0.1966599
0.2318169
0.2224003
0.1890026
0.09301235
0.05523102
0.1229234
0.2016362
0.2803246
0.3531588
0.365385
0.3187359
0.2956203
0.3401929
0.3315001
0.2820474
0.39369
0.5625067
0.6329826
0.7305701
0.7326403
0.4178536
0.01745749
-0.3066468
-0.7077327
-1.052552
-1.076948
-0.9206775
-0.8540927
-0.8491136
-0.8024665
-0.7246153
-0.5462245
-0.2395908
0.02495867
0.1954698
0.3603044
0.4805138
0.5406209
0.4698899
0.1298355
-0.3408737
-0.7045633
-0.8097535
-0.5885327
-0.1607774
0.2343755
0.4388145
0.5999429
0.896064
1.088332
0.9619704
0.7278307
0.5956637
0.4465059
0.1809978
-0.02380312
-0.137913
-0.3072098
-0.5605034
-0.7709998
-0.7817702
-0.6324563
-0.4254809
-0.2505901
-0.03382606
0.2885162
0.3732573
0.1817271
0.04761152
-0.01536169
-0.02045804
0.0303923
0.007207649
-0.03642796
-0.1036527
-0.1640898
-0.02607097
0.08168685
0.008041621
0.01241151
0.1314582
0.2300464
0.2157004
0.228283
0.3354153
0.2771178
0.2073106
0.2781329
0.09331454
-0.2822497
-0.4025168
-0.3669179
-0.3812643
-0.2418883
0.07618783
0.2361248
0.06657294
-0.2250011
-0.3209929
-0.3196822
-0.2938534
-0.02635746
0.1682587
0.09998728
0.1373504
0.2023765
0.1735245
0.1688892
0.01680792
-0.1874355
-0.1012213
0.1316031
0.1529689
-0.1171429
-0.4480434
-0.5495741
-0.4451059
-0.3322635
-0.1993303
0.05689038
0.247761
0.1311162
-0.05465941
-0.09654843
-0.06080248
0.208468
0.7110646
1.012159
0.9380008
0.7202107
0.4243387
0.1751553
0.1616502
0.1824768
0.1294961
0.01003492
-0.2106683
-0.300232
-0.1611391
-0.085
-0.1594009
-0.1799894
-0.1278202
-0.02320411
-0.002184677
-0.1664413
-0.2675943
-0.3223134
-0.4810961
-0.5471288
-0.3862483
-0.2711079
-0.3756594
-0.7344525
-1.272148
-1.323327
-0.7835557
-0.1966165
0.4626561
1.019312
0.8705068
-0.05918994
-1.21923
-1.917763
-1.876403
-1.238003
0.03097367
1.850605
3.470549
4.506033
5.094644
4.925464
3.821675
2.059829
0.2024526
-1.048121
-1.841723
-2.55391
-2.62704
-2.104414
-1.801637
-1.740411
-1.968517
-2.468262
-2.668152
-2.513321
-2.052312
-1.373114
-0.7015411
0.1262483
0.8126069
0.9955625
1.071645
1.221441
1.227038
0.8105907
0.236344
0.3889208
1.032863
1.398855
1.618803
1.663528
1.463345
1.358854
1.221905
0.8436483
0.4775971
0.06622764
-0.4776343
-0.6632746
-0.4846911
-0.4109815
-0.4624807
-0.5920937
-0.5965056
-0.2511829
-0.07275411
-0.2589326
-0.4434735
-0.6817911
-0.9483252
-1.027945
-0.8905781
-0.6946863
-0.6551796
-0.7350127
-0.820843
-0.8271981
-0.7241107
-0.6130609
-0.4349401
0.0007199337
0.4632632
0.6197042
0.8018074
1.123795
1.16424
1.002288
0.9117383
0.8394744
0.7426026
0.7777905
0.9583773
1.011113
0.8871225
0.7285329
0.4341261
-0.001572351
-0.3822197
-0.7321747
-1.060884
-1.291407
-1.346587
-1.096487
-0.7303134
-0.440287
-0.1824845
-0.1032261
-0.2467468
-0.3782831
-0.3498291
-0.08976654
0.3616736
0.6955004
0.794067
0.8153991
0.6421522
0.2262816
-0.1056423
-0.2500931
-0.2681323
-0.1055096
0.08950258
0.07206209
-0.1067247
-0.1827198
-0.167392
-0.1392672
-0.006630461
-0.03640526
-0.2791067
-0.3646335
-0.4578648
-0.5498182
-0.2388228
0.2005572
0.4353349
0.4071673
0.1263814
-0.01382616
0.080935
0.1219684
0.2803359
0.5398482
0.6495419
1.033284
1.13909
0.295136
-0.3723312
-0.4998952
-0.5571619
-0.5168333
-0.3943165
-0.1567626
0.06678612
0.09856269
0.1257208
0.2811599
0.3956398
0.3970215
0.2215195
-0.09272248
-0.4376611
-0.7744166
-0.8856405
-0.900439
-0.8914112
-0.6105585
-0.2630666
-0.03532336
0.2974772
0.5520632
0.4160974
0.2312009
0.1909232
0.2143595
0.2057518
0.01847096
-0.07428137
0.09864444
0.3195067
0.3472244
0.2093717
0.1675901
0.05869984
-0.1428962
0.02591574
0.3991122
0.4841237
0.4097798
0.3343044
0.1848871
-0.08448057
-0.4427831
-0.6248064
-0.5541936
-0.3124919
-0.06569546
-0.07030122
-0.1989275
-0.3000542
-0.4295103
-0.5756431
-0.6135891
-0.4899276
-0.3264683
-0.1674762
-0.1154331
-0.2037528
-0.1599481
0.1324985
0.4815153
0.6392424
0.6597051
0.606504
0.4487281
0.3195769
0.3280693
0.6150908
0.9585787
1.114582
1.022625
0.6147809
0.215251
-0.1099891
-0.4447936
-0.6790045
-0.6713743
-0.4266756
-0.3477132
-0.544162
-0.8532098
-1.030857
-0.824388
-0.4793972
-0.1828177
0.1256275
0.09606676
-0.4481298
-0.7308156
-0.3673737
-0.1428756
-0.220797
0.03169052
0.4806533
0.6830932
0.6845125
0.6359553
0.6590394
0.7803409
0.9468012
1.072584
0.9986808
0.7241185
0.2982513
-0.1416602
-0.3908402
-0.5803742
-0.714412
-0.6832546
-0.633601
-0.5896152
-0.5771866
-0.6133307
-0.453035
0.06111548
0.5157797
0.5593585
0.4937805
0.5294299
0.4764099
0.1185825
-0.1691858
-0.1944263
-0.506909
-0.6954915
-0.4133067
-0.5080248
-0.6875419
-0.365818
-0.223463
-0.3476203
-0.2663036
0.01813964
0.1785225
0.04698811
0.09322063
0.3415118
0.2557929
0.008614599
0.1931621
0.5802937
0.5738227
0.3436113
0.118145
0.1667111
-0.008480058
-1.080782
-1.836881
-1.690398
-0.8990512
0.4495938
1.491996
1.983577
2.14357
1.769843
1.042211
0.459348
0.1261725
-0.1854745
-0.4806439
-0.5164706
-0.3615811
-0.3033546
-0.3073767
-0.3239781
-0.3890876
-0.4646929
-0.5108203
-0.4545994
-0.2954797
-0.05960478
0.08238137
0.07528002
0.1654881
0.2219612
0.06223383
-0.1445978
-0.3000505
-0.3527697
-0.3315595
-0.2502665
-0.07715651
0.05838221
0.1536256
0.2329253
0.2229872
0.2247906
0.2604595
0.2527573
0.1863393
0.2894647
0.6144134
0.4382879
-0.1290243
-0.190775
0.0592249
0.02595683
-0.3703557
-0.8053364
-0.8548526
-0.5905486
-0.2907654
-0.07318918
-0.105201
-0.2045003
-0.1980042
-0.1855995
-0.155226
-0.01661533
0.4328505
0.8929082
1.007432
0.9722053
0.7926903
0.3290533
-0.2306136
-0.4546001
-0.3344988
-0.2162118
-0.1694744
-0.2054363
-0.1924643
0.06597991
0.2477061
0.1749601
0.1636853
0.2406901
0.2358599
0.08715051
-0.2560169
-0.5926838
-0.5917062
-0.5038296
-0.5921753
-0.4905603
-0.2664461
-0.1408472
0.008035706
0.03906008
0.0006638577
0.0767423
0.07676231
0.04339503
0.2796999
0.4821014
0.3372544
0.03250377
-0.2203883
-0.1737155
0.1361358
0.5721988
0.9829608
1.043096
0.8584874
0.5835196
0.1912763
-0.08393294
-0.113246
-0.1159508
-0.2329933
-0.2629963
-0.3042131
-0.4734678
-0.4376919
-0.487047
-0.7352933
-0.6638093
-0.4708596
-0.3051936
0.04278618
0.1923265
-0.08431537
-0.3106284
-0.319886
-0.3422314
-0.4004591
-0.3806213
-0.2324094
-0.03885025
0.1784193
0.4175165
0.5638878
0.5622054
0.5302179
0.4764443
0.4415241
0.4884752
0.3832825
0.3324113
0.6504813
0.8025008
0.547599
0.5059087
0.4911848
-0.005465704
-0.4733073
-0.6551185
-0.8730542
-1.10808
-1.114617
-0.9483851
-0.703846
-0.4863091
-0.491419
-0.331441
0.2693888
0.94802
1.389706
1.439948
1.116572
0.4557033
-0.3010678
-0.5432866
-0.3725052
-0.530368
-0.7673696
-0.5843339
-0.5649592
-0.6080841
-0.1672907
0.1390656
0.1060949
0.1620236
0.2240778
0.1532718
0.1206845
0.1322411
-0.02915997
-0.3016168
-0.4686205
-0.3129096
-0.02741223
-0.1019939
-0.1012759
0.3832772
0.6642975
0.6111571
0.7497897
0.821718
0.4755016
-0.1002985
-0.5385727
-0.3703953
0.105889
0.1592392
0.04475756
0.1600295
0.298452
0.4403943
0.571776
0.5787383
0.5587909
0.3602237
-0.09920558
-0.4664963
-0.6576921
-0.8657776
-0.8228948
-0.4479971
-0.1618866
0.08871471
0.2148685
0.08749596
0.004315754
-0.2402736
-0.7007987
-0.9722595
-1.007577
-0.980516
-0.9465913
-0.8229882
-0.6779193
-0.4985263
-0.1285498
0.1607121
0.2444969
0.4174892
0.8363182
1.302157
1.434519
1.317989
1.195168
1.09706
1.030177
0.9094376
0.696522
0.4332804
0.2548872
0.1661227
0.1370948
0.2272514
0.1658751
0.00827191
0.1231346
0.2069359
0.009696924
-0.2312701
-0.4359464
-0.7034807
-1.070424
-1.398601
-1.627342
-1.836573
-2.088272
-2.331671
-2.389242
-2.187365
-1.675551
-0.8866775
-0.008810271
0.7186629
1.155884
1.474318
1.834049
2.192639
2.457508
2.58386
2.513668
2.195729
1.712616
1.140899
0.5769921
0.1429237
-0.1095278
-0.2667398
-0.4687588
-0.6279099
-0.6626545
-0.6551812
-0.63906
-0.5892221
-0.4988198
-0.4552712
-0.4970872
-0.5538159
-0.5906654
-0.6816264
-0.8917306
-1.027828
-0.9508329
-0.8066156
-0.6975664
-0.6153656
-0.4909305
-0.2827113
-0.01061459
0.2863746
0.5195553
0.7546203
1.077136
1.306303
1.251879
0.9183182
0.3920611
-0.2066995
-0.6899429
-0.9986696
-1.195237
-1.306033
-1.368046
-1.255153
-0.8112268
-0.1388453
0.5917277
1.277656
1.852657
2.269485
2.539991
2.611411
2.358661
1.865842
1.194607
0.3684157
-0.367399
-0.8850669
-1.149589
-1.025127
-0.6416894
-0.3912578
-0.4342084
-0.6362692
-0.8472047
-1.058576
-1.327526
-1.60477
-1.803823
-1.937888
-1.983659
-1.748433
-1.197989
-0.5357502
0.05582931
0.4586464
0.7189738
0.9303923
1.078104
1.138819
1.154349
1.125318
1.005698
0.8289683
0.6200913
0.4421469
0.3543777
0.3100773
0.297923
0.314758
0.2872826
0.1932081
0.1447946
0.1927311
0.2445417
0.2163615
0.119544
0.02379945
-0.02767698
-0.06321245
-0.1490988
-0.2517667
-0.3646098
-0.5412243
-0.7029969
-0.7386503
-0.616415
-0.4296817
-0.2943045
-0.2214434
-0.1814118
-0.1510786
-0.07122921
0.1166778
0.3681239
0.6487583
0.8906856
0.9585763
0.8383832
0.5922341
0.2754806
-0.07450443
-0.4153501
-0.6904597
-0.8876612
-1.011178
-1.022914
-0.8965958
-0.676919
-0.4474967
-0.2326482
-0.01150536
0.1918517
0.3925806
0.56234
0.6346806
0.6618938
0.682419
0.7149681
0.7769013
0.848209
0.8886721
0.7804401
0.4517156
-0.02057566
-0.5344474
-0.9922381
-1.264835
-1.354718
-1.330897
-1.069963
-0.5434021
0.03233452
0.5464846
0.9264297
1.113047
1.16492
0.9712162
0.5850104
0.2819518
0.004372379
-0.2856255
-0.5240943
-0.7550407
-0.908852
-0.9081572
-0.7775219
-0.5455497
-0.257707
-0.04166927
0.05580496
0.07087846
-0.006839416
-0.1472221
-0.2770847
-0.3140347
-0.263516
-0.143107
0.08015882
0.2317063
0.2510368
0.5920698
1.142378
1.167864
0.9146692
0.866753
0.8428563
0.7420229
0.5434794
0.2881419
0.08393946
-0.03621754
0.02785116
0.2350256
0.3146665
0.1599106
-0.1437906
-0.4227057
-0.5533019
-0.6563849
-0.8280445
-0.9484562
-0.9667751
-1.089117
-1.126933
-1.313562
-1.845794
-2.188574
-2.698435
-1.840707
1.265248
3.498725
3.899534
3.499007
2.560563
1.595223
0.7239285
-0.1562486
-0.810599
-1.120683
-1.187911
-1.068905
-0.9578261
-0.9861541
-0.9810416
-0.8088851
-0.4881259
-0.1144053
0.2006692
0.4030565
0.483968
0.4646696
0.4216295
0.4070651
0.426567
0.4041041
0.2805602
0.148051
0.06236582
0.03292598
0.05167896
0.1374496
0.285433
0.3825235
0.4272385
0.3600636
0.1424667
-0.00781321
-0.05158066
-0.08166832
-0.006163011
0.1181271
0.110222
0.02596383
-0.1790338
-0.329264
-0.2534222
-0.4343252
-0.6127365
-0.8323869
-0.6120555
0.09348402
-2.777927
-7.144441
-5.728039
-0.2543485
3.979222
5.84208
6.537642
6.464326
4.545407
1.584139
-0.7062603
-2.314558
-3.61234
-4.242973
-3.747631
-2.332942
-0.7388578
0.6204389
1.504027
1.930391
2.33451
2.410372
2.093239
1.789022
1.134263
0.1626543
-0.6603985
-1.231863
-1.593888
-1.883936
-2.090131
-2.144671
-2.003757
-1.676418
-1.458806
-1.429412
-1.122043
-0.3841665
0.3168245
0.8496159
1.294279
1.28242
0.5876279
-0.3668258
-0.8868065
-0.8591613
-0.5051537
0.4357721
1.916068
3.272038
4.129113
4.514092
4.419988
3.663821
2.228216
0.41157
-1.350311
-2.621488
-3.267911
-3.426274
-3.190575
-2.704194
-2.197624
-1.756227
-1.37707
-1.062706
-0.8379411
-0.710837
-0.4833175
-0.04471426
0.4377284
0.8566662
1.121664
1.084268
0.7436757
0.330875
0.08564092
0.0432984
0.134739
0.2659806
0.4998613
0.8988764
1.257702
1.354773
1.116095
0.6816165
0.2191398
-0.2704872
-0.7331153
-1.00019
-1.012549
-0.859959
-0.6000273
-0.2267524
0.133214
0.3888541
0.6378977
0.6856218
0.5124755
0.4283379
0.4253301
0.4601063
0.2600015
-0.2190007
-0.4660363
-0.4045804
-0.2929883
-0.3525004
-0.580763
-0.7269233
-0.6092052
-0.3224289
-0.1432631
-0.0921075
-0.06452088
-0.01488901
9.425994e-05
-0.08888025
-0.1296692
-0.1075956
-0.1348947
-0.1082496
0.1037594
0.3786425
0.4544065
0.3329496
0.2855703
0.38182
0.4322172
0.3505675
0.2052189
0.1420804
0.164636
0.07706664
-0.09357078
-0.1583353
-0.08886626
-0.002352371
-0.009541636
-0.07394838
-0.1959062
-0.3662803
-0.3486426
-0.1621921
-0.1319109
-0.2439845
-0.2753146
-0.1884798
-0.05967397
0.01474218
-0.01899207
-0.03894088
0.1029334
0.2693384
0.2411884
0.07523161
-0.05611136
-0.1507962
-0.2118285
-0.1866186
-0.1314786
-0.04569288
0.1407864
0.342654
0.4587272
0.4934776
0.4561779
0.3800222
0.243422
0.08813226
0.01589916
-0.02083977
-0.05824555
-0.1291076
-0.2712057
-0.3810534
-0.3803004
-0.3081339
-0.1826288
-0.1109241
-0.1261425
-0.08807337
-0.01264887
0.01841582
-0.03780884
-0.1116996
-0.09747378
-0.01231026
0.1056017
0.1876708
0.2350783
0.2464537
0.1842441
0.1148713
0.06518995
0.0282856
0.02916341
0.05506989
0.03737174
-0.03566536
-0.1112092
-0.1363406
-0.08883871
-0.08602277
-0.08612351
-0.0018681
0.03857707
0.06139812
0.03617983
-0.1140433
-0.220812
-0.2527351
-0.3070978
-0.2708367
-0.1445329
-0.09230513
-0.05783793
0.0009193852
0.1647144
0.4692602
0.7170704
0.8833392
0.9470841
0.8258975
0.5883414
0.3419935
0.1861371
0.05211738
-0.2230585
-0.5598902
-0.8184156
-0.9590061
-0.9602187
-0.9045233
-0.8246937
-0.659857
-0.4556603
-0.2654074
-0.06494035
0.1255129
0.2469029
0.2965357
0.2929316
0.2837876
0.2944949
0.2786171
0.2764136
0.2563674
0.2343313
0.3534032
0.4655403
0.4553226
0.3739132
0.2103695
0.03590981
-0.08946284
-0.1714254
-0.263047
-0.414375
-0.5607574
-0.5698074
-0.3870314
-0.1989862
-0.1545066
-0.1190307
-0.03110013
0.01272817
-0.007392207
-0.01279666
0.1073557
0.3128279
0.4622565
0.541319
0.5759481
0.5456565
0.4242992
0.2732059
0.1847067
0.08821072
-0.06306322
-0.1446336
-0.1744785
-0.2297727
-0.2476116
-0.2963896
-0.3549093
-0.2991683
-0.2642198
-0.2475084
-0.1679939
-0.1027415
-0.02764203
0.004633403
-0.03665333
-0.0677135
-0.1471674
-0.2542361
-0.2647485
-0.2230658
-0.1615127
0.0993792
0.4461503
0.8582495
1.749404
2.244337
1.353097
-0.1671165
-1.678413
-2.795341
-3.037534
-2.50501
-1.464862
-0.345896
0.5402001
1.13022
1.442343
1.572739
1.470967
1.241421
1.043338
0.8595881
0.7370471
0.6196507
0.4285438
0.2205559
-0.03643174
-0.3176865
-0.5411729
-0.7156931
-0.7983052
-0.8299162
-0.8749644
-0.8129504
-0.6414785
-0.4532876
-0.1815685
0.06120043
0.170863
0.2684686
0.2776265
0.202457
0.1323023
0.0178296
-0.05106293
-0.001918487
0.01815665
0.1334826
0.3445403
0.528088
1.006233
0.8863181
0.04066681
-0.1676917
-0.3374322
-0.8018414
-0.8408692
-0.580187
-0.347706
-0.3520195
-0.3508606
-0.1017338
0.1552469
0.1624935
-0.04214951
-0.1931121
-0.1471681
-0.01969743
0.04440019
0.07954679
0.1240226
0.1827218
0.2801353
0.3684766
0.4262739
0.418262
0.3388407
0.2841488
0.2736063
0.292483
0.2626873
0.1559035
0.1309855
0.1403697
0.06759024
0.00222384
-0.05624497
-0.0868089
-0.09760472
-0.2170943
-0.3763573
-0.5546625
-0.7439961
-0.7771206
-0.7110698
-0.6003221
-0.3464283
-0.06680799
0.1323875
0.2864405
0.3813958
0.3626333
0.281244
0.265471
0.1887177
0.07889468
0.06566978
0.04147481
0.06308058
0.09159279
0.1614698
0.3308255
0.3963933
0.3977369
0.359605
0.2532848
0.1521135
0.06615291
-0.02767846
-0.1798019
-0.3011338
-0.39963
-0.4790005
-0.4130294
-0.2955112
-0.1658255
-0.02295195
0.06386366
0.09479579
0.154968
0.2901429
0.3583937
0.323029
0.1881904
0.01573731
-0.06305306
-0.1340209
-0.1854069
-0.1980819
-0.2595226
-0.3084781
-0.3218495
-0.3344258
-0.3165887
-0.2160427
-0.08428943
-0.0118639
-0.01666143
-0.1211276
-0.2215143
-0.2632871
-0.3051624
-0.3024032
-0.2639703
-0.1713463
-0.01927134
0.1666475
0.3778524
0.4643386
0.4813368
0.5617455
0.6499889
0.6932168
0.613494
0.5328167
0.551286
0.5423201
0.4725909
0.306773
0.06319531
-0.1573028
-0.2540858
-0.1932907
-0.1110833
-0.08809512
-0.08131848
-0.04097313
-0.01635529
-0.06947921
-0.1891366
-0.4015597
-0.5890673
-0.6725314
-0.6922758
-0.6009849
-0.5039907
-0.3978209
-0.2346405
-0.1181617
-0.02990961
-0.01017204
-0.04073852
-0.05892951
-0.07909655
-0.01862273
0.0813386
0.1037273
0.08271788
0.0689392
0.06828383
0.1054919
0.1894165
0.2798088
0.3648851
0.4356443
0.4584176
0.4252324
0.3395156
0.2080988
0.0430855
-0.09437369
-0.1814972
-0.2917868
-0.3926384
-0.3759544
-0.2463848
-0.01863585
0.2357533
0.3693363
0.3997339
0.4161919
0.4338769
0.3849699
0.2460052
0.1058465
-0.01523427
-0.1232821
-0.2016683
-0.303344
-0.4727356
-0.6160545
-0.609863
-0.4493235
-0.2416555
-0.1190721
-0.03174399
0.1424972
0.3499859
0.4876799
0.4777523
0.4080486
0.3687774
0.176459
-0.09146281
-0.2367715
-0.3439887
-0.4921493
-0.6895627
-0.712478
-0.4472915
-0.1743933
-0.03663111
0.1246634
0.4051119
0.6632706
0.7951838
0.6753563
0.4557934
0.3732159
0.08103834
-0.310326
-0.4772242
-0.6045013
-0.697528
-0.7605125
-0.6851844
-0.4164137
-0.1389687
0.1012891
0.2284372
0.2889848
0.3039012
0.3641236
0.5922657
0.8664321
1.109292
1.14537
0.9924093
0.7426724
0.3480897
-0.02797033
-0.3360663
-0.4849361
-0.4935378
-0.637349
-0.7699772
-0.8195149
-0.956759
-1.136248
-1.398573
-1.575834
-1.382056
-0.9371413
-0.4190457
0.03361812
0.2829612
0.3495323
0.4789695
0.7441019
1.005247
1.342315
1.600027
1.686455
1.798721
1.752585
1.425478
1.047228
0.7786723
0.5692273
0.318278
-0.01477833
-0.3945052
-0.7600145
-1.121871
-1.418724
-1.617878
-1.66781
-1.582185
-1.51934
-1.352323
-1.091064
-0.8760726
-0.7441755
-0.7346339
-0.6542498
-0.582245
-0.4652205
-0.00562124
0.4703248
0.6463366
0.6520455
0.7958137
1.224088
1.71702
2.075284
2.250914
2.252587
2.172459
2.055629
1.793865
1.405504
0.958395
0.2996349
-0.5666676
-1.455777
-2.317119
-3.08222
-3.608189
-3.769838
-3.560711
-3.087337
-2.424869
-1.697142
-0.8768944
0.1529323
1.253021
2.430545
3.461025
3.973065
4.282514
3.971645
2.570927
1.065307
-0.2067464
-1.489173
-2.354586
-2.560638
-2.347988
-1.91275
-1.22322
-0.3667839
0.4169486
0.9506893
1.183541
1.148803
0.9023565
0.5290957
0.1778295
-0.04428838
-0.2191141
-0.4140629
-0.5767893
-0.6455005
-0.5211064
-0.2338747
-0.141771
-0.118749
0.2202757
0.4968659
0.5180613
0.4394661
0.2911068
0.1282735
-0.1616304
-0.53998
-0.7944258
-0.855062
-0.8496193
-0.8105126
-0.6597247
-0.4389971
-0.1240635
0.1825296
0.5035038
0.8764123
1.065017
1.138969
1.102196
0.9144469
0.6598421
0.3321336
0.08049455
-0.1156945
-0.3026744
-0.5073126
-0.668999
-0.6411425
-0.6416423
-0.6038333
-0.3900596
-0.1402674
0.108844
0.2696558
0.3388453
0.3620994
0.3561367
0.2984362
0.2500332
0.3438449
0.3736975
0.2027039
-0.01008978
-0.1458363
-0.2297939
-0.3733601
-0.5331292
-0.6164063
-0.6686176
-0.8085247
-0.9891059
-0.8674699
-0.9309954
-1.624025
-1.26335
0.5208729
1.860767
2.542767
2.86273
2.507077
1.829469
1.186905
0.4833728
-0.3338509
-1.158675
-1.644572
-1.57146
-1.338416
-1.092417
-0.7568723
-0.5067915
-0.3183548
-0.1392649
0.06317656
0.2206323
0.3008901
0.4275963
0.4672625
0.3950807
0.3468639
0.278081
0.09760251
-0.07174423
-0.03270042
0.0201294
-0.1022427
-0.218907
-0.1873612
-0.06759468
0.0796664
0.1640058
0.0769303
-0.06203163
-0.1432947
-0.2474602
-0.3799821
-0.3896292
-0.1878292
0.1136396
0.3282481
0.4671553
0.6808127
0.7813447
0.5633504
0.2951279
0.1640131
-0.0006236769
-0.2246692
-0.2996181
-0.2036389
-0.1249018
-0.1599616
-0.2540683
-0.3158909
-0.3433946
-0.3140223
-0.1745449
-0.05295296
-0.06671769
-0.1245591
-0.09638035
-0.0418058
0.009458463
0.1018866
0.1828039
0.3077461
0.381741
0.3433648
0.3567874
0.3494016
0.1803467
-0.0566277
-0.1614159
-0.1873782
-0.298424
-0.4768419
-0.5537941
-0.4656335
-0.3689098
-0.2835791
-0.1942682
-0.1080127
-0.03261368
-0.01129958
0.0254355
0.01230643
-0.05979525
0.02369329
0.1978202
0.2318033
0.2073778
0.2885181
0.3831757
0.3815781
0.3305736
0.3147463
0.3361302
0.3539371
0.4074447
0.4542448
0.3593644
0.1451388
-0.05199195
-0.1686338
-0.2557143
-0.3691996
-0.5011331
-0.6255968
-0.7119395
-0.7185044
-0.6236204
-0.4515442
-0.2063081
0.07123866
0.2712096
0.3894299
0.4307656
0.4122464
0.4211342
0.4041317
0.3128153
0.2172641
0.1052979
-0.05940809
-0.1696161
-0.1806444
-0.1799629
-0.143757
-0.06201798
0.02936315
0.1464991
0.2365267
0.269899
0.2703395
0.215259
0.1437213
0.09565649
0.03460388
-0.01209799
-0.07492719
-0.178635
-0.25242
-0.3608063
-0.4751035
-0.5054258
-0.6250595
-0.7586078
-0.5920663
-0.3475578
-0.3390431
-0.5720108
-0.9630827
-1.028115
-0.4668171
0.4418702
1.40273
1.868009
1.361539
0.2861226
-0.7468896
-1.565676
-1.923451
-1.424931
-0.07014534
1.59777
2.984512
3.917608
4.345573
4.147843
3.291528
1.962169
0.5470389
-0.7779299
-1.90912
-2.583813
-2.735521
-2.580569
-2.415899
-2.398861
-2.515452
-2.606566
-2.529151
-2.260581
-1.686575
-0.870724
-0.06009402
0.6899502
1.395596
1.879993
1.780418
1.233345
0.7781427
0.5070392
0.3628142
0.4265377
0.6461317
0.8686244
0.9795588
0.9622127
0.8350478
0.6546315
0.5221372
0.438067
0.4048242
0.3892205
0.2177692
-0.04443938
-0.2266892
-0.3628265
-0.4796561
-0.5190322
-0.4612906
-0.4293377
-0.4971517
-0.5823596
-0.6248003
-0.6125433
-0.4964484
-0.2907144
-0.0189677
0.2833365
0.4676708
0.5922959
0.611882
0.392062
0.1028245
-0.2047407
-0.4703163
-0.6398443
-0.7713392
-0.7333616
-0.6147602
-0.5762935
-0.4535147
-0.2253261
-0.01134993
0.1441721
0.2555214
0.3842437
0.48676
0.5259349
0.5294926
0.5421256
0.5368547
0.4390885
0.3100123
0.1542636
-0.03784872
-0.1733405
-0.217141
-0.2173976
-0.163351
-0.07294039
-0.05532672
-0.02313299
0.02181254
0.06761625
0.2383377
0.3859244
0.4730146
0.5661811
0.5494656
0.4146903
0.2522619
0.1001007
-0.06290735
-0.2532145
-0.4292418
-0.5687552
-0.6634185
-0.6621408
-0.5814899
-0.4724011
-0.3460402
-0.2356114
-0.0959767
0.0525846
0.07734849
0.0883809
0.1392149
0.1379852
0.1375739
0.1440042
0.1557313
0.1571926
0.1537871
0.1618307
0.1096488
0.01732006
-0.08858795
-0.1797149
-0.2450225
-0.2926677
-0.2647147
-0.1974836
-0.134989
-0.08032203
-0.04288892
0.01492421
0.06341007
0.08508303
0.1197195
0.1499885
0.220325
0.3259099
0.402397
0.4764009
0.4544044
0.2930828
0.08334386
-0.1344127
-0.2838527
-0.3246205
-0.2340217
-0.08918648
0.01987812
0.1533982
0.243288
0.2152651
0.1061798
-0.03298436
-0.1053776
-0.1183614
-0.1478062
-0.1737912
-0.1649709
-0.1628256
-0.1853219
-0.2048008
-0.2168079
-0.1836234
-0.126971
-0.1111479
-0.1146395
-0.1165631
-0.1207483
-0.1873065
-0.2472918
-0.1652239
-0.03735003
0.08096234
0.2045681
0.2585248
0.2316075
0.1660139
0.1473914
0.2962297
0.52512
0.6243228
0.5878482
0.4859043
0.3675055
0.3014289
0.2536135
0.1919998
0.1189065
0.03558944
-0.0100513
-0.06269608
-0.1929042
-0.3581782
-0.5170839
-0.6680871
-0.7511476
-0.7380421
-0.6555049
-0.4949144
-0.3025076
-0.1024764
0.08114419
0.1595028
0.1598582
0.1571658
0.1536919
0.1518215
0.159589
0.1680334
0.1432531
0.05839265
-0.04034925
-0.1177071
-0.1763309
-0.2067991
-0.1747293
-0.07042643
0.03180298
0.1125792
0.227273
0.4068467
0.5120021
0.4523662
0.3940088
0.3274914
0.2175388
0.1424411
0.04233458
-0.06919829
-0.2000885
-0.4345094
-0.6519185
-0.7263476
-0.6533807
-0.4893068
-0.3326283
-0.1374205
0.1031441
0.2858567
0.3978193
0.4500103
0.4241083
0.3491156
0.2830158
0.1839574
0.06747204
-0.03714257
-0.138474
-0.1537588
-0.06608281
0.1298412
0.3017211
0.3505352
0.4192411
0.4275984
0.3293972
0.2209328
0.09010185
-0.02807895
-0.2062425
-0.4149495
-0.4582296
-0.3988784
-0.3424236
-0.3027561
-0.2873588
-0.2249789
-0.1474974
-0.1214498
-0.08612411
-0.03164992
-0.006792741
-0.01347009
0.0006158892
0.07896266
0.1345956
0.08071877
0.0195692
0.01181752
-0.003775276
-0.0372771
-0.09899908
-0.1383759
-0.1165959
-0.09018664
-0.052539
-0.02019475
0.0208606
0.1155494
0.1616838
0.09483761
0.03711177
0.07841855
0.1470754
0.2122836
0.2384547
0.1688665
0.09607754
0.04716896
-0.006771966
-0.04256414
-0.08260326
-0.1124044
-0.1085661
-0.0759242
-0.01350751
0.04327219
0.07167209
0.09634077
0.1035092
0.09694079
0.1116801
0.1110596
0.06527264
-0.006985267
-0.06540842
-0.1184233
-0.1970834
-0.2878712
-0.3359904
-0.2853759
-0.2076922
-0.1272348
0.01488167
0.1417449
0.1830615
0.2036844
0.2516773
0.2770045
0.2141438
0.1089034
0.06171981
0.05512951
0.04520027
-0.005594952
-0.09706821
-0.1328932
-0.1200989
-0.1141958
-0.08619227
-0.006684149
0.0967605
0.138648
0.08179461
-0.02499037
-0.1166807
-0.1534045
-0.1632801
-0.2241121
-0.3230847
-0.3120788
-0.2024423
-0.1543542
-0.1297058
-0.05587712
0.0002929244
0.03585242
0.1557032
0.3078815
0.3768571
0.4316829
0.4562581
0.4096961
0.3889588
0.4438602
0.4581044
0.3330975
0.1876415
0.05646709
-0.02315819
0.005985656
-0.009548229
-0.1126275
-0.2218783
-0.3273066
-0.4588967
-0.5749676
-0.6074708
-0.5990467
-0.5934971
-0.5795769
-0.5093437
-0.3498108
-0.1754992
-0.09592195
-0.0908788
-0.04491009
0.05549227
0.1310514
0.1837245
0.2723055
0.3443709
0.3457524
0.3232989
0.3165505
0.32428
0.2751358
0.1821081
0.1439566
0.1264781
0.1250546
0.1316703
0.09440754
0.07065667
0.0501726
0.01854989
-0.01413696
-0.064973
-0.08264304
-0.0902944
-0.07872762
0.02092161
0.136547
0.152416
0.08218305
0.04225735
0.01577146
-0.03065575
0.007875675
0.1609918
0.3247872
0.3924649
0.4003968
0.3457232
0.153023
-0.06623714
-0.2201228
-0.3471223
-0.4367151
-0.4902577
-0.5592334
-0.6399571
-0.7278598
-0.8279544
-0.8857378
-0.8317984
-0.597606
-0.2400766
0.118851
0.4824735
0.806085
0.9789752
0.9878799
0.8433228
0.5892714
0.3401234
0.1494528
0.01805073
-0.05765721
-0.06815059
-0.02647138
-0.02391225
-0.06905083
-0.07361037
-0.04374182
-0.0677387
-0.1218981
-0.150508
-0.1900662
-0.2222798
-0.2193437
-0.1608515
-0.01080382
0.1632657
0.2627079
0.2963752
0.3643239
0.4282341
0.3444347
0.1792657
0.05930499
-0.03507651
-0.1529969
-0.2831186
-0.3748585
-0.391112
-0.3359489
-0.2900296
-0.2925343
-0.3314603
-0.3892141
-0.3890396
-0.3276154
-0.2358242
-0.1286042
0.007659925
0.1982773
0.3513684
0.4495589
0.5624488
0.6844566
0.7521039
0.6597483
0.448918
0.2892402
0.1562007
0.006958466
-0.07706209
-0.1507462
-0.2275618
-0.2585056
-0.3521065
-0.502494
-0.6030053
-0.7047448
-0.8187423
-0.8910924
-0.86224
-0.6660502
-0.402576
-0.1050517
0.2762567
0.6124223
0.8166899
0.923761
0.9173269
0.8023689
0.6519839
0.4671615
0.2853689
0.1709465
0.08079679
0.03415335
-0.0007714257
-0.07478005
-0.1036831
-0.1030268
-0.07296404
0.06856273
0.2462936
0.3781302
0.4721254
0.5040863
0.5102853
0.4184049
0.1686395
0.01219433
-0.03351187
-0.1319152
-0.2144664
-0.2329885
-0.1975055
-0.161304
-0.2444475
-0.5074611
-0.8394913
-1.159038
-1.551589
-1.964076
-2.280445
-2.394047
-2.175884
-1.583153
-0.7155676
0.09168391
0.6829087
1.14452
1.474017
1.739109
2.005022
2.222259
2.342731
2.316638
2.116942
1.815587
1.493814
1.137111
0.7726242
0.3938437
-0.04752952
-0.4358814
-0.7127479
-0.8892536
-0.9335706
-0.920923
-0.9108322
-0.9076754
-0.9046143
-0.9004697
-0.9604812
-1.050199
-1.141592
-1.291014
-1.419918
-1.470595
-1.418337
-1.20169
-0.8476428
-0.3911539
0.06840898
0.5019552
0.956448
1.342604
1.656444
1.908992
2.066222
2.183783
2.322297
2.44992
2.386622
2.014893
1.354134
0.3900018
-0.8555844
-2.162313
-3.20382
-3.840523
-4.067942
-3.856961
-3.273655
-2.428809
-1.34103
0.01708463
1.500478
2.807522
3.780345
4.292692
4.155692
3.397209
2.222724
0.8563424
-0.4383284
-1.44674
-2.052955
-2.234475
-2.049895
-1.631747
-1.109898
-0.5526594
-0.1164177
0.1175623
0.2390638
0.2905591
0.2743481
0.162596
-0.03335128
-0.2342179
-0.3953925
-0.4641382
-0.4142819
-0.2682818
-0.08035462
0.08622795
0.275964
0.4990857
0.6642268
0.7239693
0.6334501
0.4025762
0.1159418
-0.1859215
-0.495392
-0.7874263
-0.9883691
-1.045267
-0.9332103
-0.6653155
-0.3168656
0.08723424
0.4703541
0.7268828
0.8714383
0.9000354
0.8184416
0.6885964
0.4997156
0.2998774
0.1382153
-0.05533465
-0.1977163
-0.2080081
-0.1724425
-0.06403437
0.1271557
0.2576232
0.2769641
0.2483542
0.2114071
0.1913723
0.1991724
0.1709297
0.08831079
-0.005756129
-0.1130111
-0.197683
-0.2509435
-0.2698529
-0.2833467
-0.3661451
