-0.008148444
-0.4055633
-0.4322861
-0.4503824
-0.3949504
-0.2986921
-0.2051389
-0.05339247
-0.002971641
0.005127533
-0.0007739136
-0.05711532
-0.1037385
-0.1151112
-0.0788269
-0.07092492
-0.1023722
-0.07292737
-0.03459939
-0.02594594
-0.006814967
-0.008003452
0.01266935
0.1006834
0.1600045
0.1592508
0.1670062
0.1756284
0.1465421
0.105804
0.09336893
0.06378262
-0.02536724
-0.09959256
-0.1140458
-0.1156343
-0.1317016
-0.1318027
-0.08781648
-0.03427112
0.002695044
0.05882126
0.1474195
0.2251922
0.2437736
0.2016739
0.1530632
0.09048398
-0.014837
-0.07788631
-0.07638112
-0.06438743
-0.05531696
-0.04336584
0.004800481
0.05059285
0.04690877
0.000916997
-0.07457576
-0.1308849
-0.1682351
-0.1811639
-0.1696625
-0.1625029
-0.124429
-0.1056363
-0.1441829
-0.1610267
-0.126535
-0.03636251
0.1121524
0.2218823
0.21458
0.1747469
0.1525816
0.1669834
0.2155563
0.1995314
0.1143207
0.01832693
-0.04253325
-0.0789238
-0.1293425
-0.173477
-0.2059863
-0.1994218
-0.1556897
-0.08450054
0.03197571
0.113429
0.1444137
0.1871278
0.212245
0.2191732
0.242291
0.2541124
0.2182816
0.1420268
0.1180604
0.1624755
0.1862856
0.1610421
0.06851474
-0.03268604
-0.07691176
-0.1137052
-0.1853077
-0.2819296
-0.3241221
-0.2846377
-0.2648452
-0.292461
-0.3467648
-0.4461714
-0.5093174
-0.5210152
-0.5122275
-0.3945053
-0.2161908
-0.04474786
0.1583714
0.3483055
0.4651286
0.5185784
0.5347482
0.527189
0.4953897
0.4080809
0.3033607
0.2121399
0.075248
-0.03947977
-0.08636013
-0.1167021
-0.06698976
-0.004464128
-0.06934182
-0.1644836
-0.2171549
-0.2735836
-0.3307886
-0.3468487
-0.2904217
-0.2013301
-0.1199675
-0.02419893
0.07163079
0.160338
0.2687295
0.346923
0.3582602
0.3714152
0.3924905
0.3361418
0.2418872
0.1916171
0.1525316
0.1140501
0.09548408
0.0518339
-0.06228999
-0.1718934
-0.1982286
-0.1974702
-0.1865629
-0.1689611
-0.1856448
-0.2069316
-0.2340632
-0.2389974
-0.1728052
-0.1175111
-0.1188521
-0.1492093
-0.2288692
-0.3361702
-0.40496
-0.4215379
-0.4092297
-0.3773568
-0.2839846
-0.1586896
-0.07116953
0.03537476
0.16943
0.2763848
0.3745403
0.4567304
0.5141613
0.5319024
0.4772337
0.4552035
0.5489843
0.6496096
0.7137567
0.8282074
0.98413
1.151229
1.317868
1.46155
1.592434
1.662744
1.63578
1.400649
0.8572428
-0.05311158
-1.609635
-3.868674
-6.349731
-8.454568
-9.686336
-9.309381
-6.789784
-2.642033
1.932958
5.663211
7.778151
8.186791
7.079362
5.006438
2.710057
0.941926
0.5020471
1.185022
2.081344
2.877675
3.116882
2.372626
1.03475
-0.2637264
-1.36401
-2.51012
-3.708545
-5.108274
-6.476024
-6.924885
-6.183096
-4.470349
-2.083611
0.5938811
2.954003
4.362702
4.82221
4.690043
4.295012
3.890757
3.517545
3.021823
2.231086
1.229915
0.2048098
-0.7985719
-1.688923
-2.380084
-2.928197
-3.335096
-3.530929
-3.510703
-3.2514
-2.7475
-2.091723
-1.369182
-0.6271418
0.1293695
0.8988145
1.606958
2.174434
2.562638
2.733176
2.6515
2.332458
1.82769
1.159774
0.4542125
-0.07465476
-0.4604301
-0.7734012
-0.8989453
-0.8842629
-0.8381669
-0.7296044
-0.5757164
-0.4056303
-0.181947
0.05115302
0.213746
0.3050955
0.3189212
0.2905055
0.2627167
0.200327
0.1215625
0.06217714
-0.008112771
-0.07332081
-0.0866157
-0.08670551
-0.1182509
-0.1959294
-0.3223814
-0.4399447
-0.5047414
-0.5208436
-0.5083696
-0.4801117
-0.4126616
-0.3275574
-0.240127
-0.1194533
0.02094904
0.1581454
0.2449521
0.3123489
0.4053644
0.4535545
0.4555247
0.426926
0.4358604
0.4590476
0.323581
0.1342245
0.01382479
-0.03397644
0.03274888
0.13412
0.2005197
0.1851256
0.04326466
-0.1305513
-0.231487
-0.2549962
-0.2486583
-0.2263098
-0.1588578
-0.08036278
-0.04062343
-0.03234299
-0.03143792
-0.01519152
-0.0120962
-0.04332925
-0.04497305
0.009444458
0.08170112
0.132661
0.1325734
0.09980597
0.06258127
0.03577897
0.01713707
-0.02841077
-0.1011675
-0.1771218
-0.2499344
-0.2747962
-0.2276769
-0.1807033
-0.1423768
-0.049984
0.08925484
0.2472992
0.381484
0.4182408
0.350883
0.2166772
0.04178669
-0.1043325
-0.1813734
-0.2221427
-0.2265839
-0.1778237
-0.09196269
-0.01157216
0.0181918
-0.00307705
-0.06423126
-0.1481051
-0.1942146
-0.1805469
-0.1340643
-0.05483389
0.03029458
0.06918094
0.07557021
0.07932962
0.07266618
0.06631407
0.1006218
0.1555375
0.1736865
0.1774711
0.1805127
0.1685617
0.1625426
0.1285601
0.06912225
0.02636177
-0.0490582
-0.1436864
-0.1941355
-0.2085639
-0.1807518
-0.1228007
-0.05198314
0.0288398
0.07093045
0.09699614
0.1402491
0.1464776
0.1034877
0.04467088
-0.03180015
-0.1386976
-0.2274661
-0.2636368
-0.2695295
-0.2343571
-0.1676108
-0.1049571
-0.02222789
0.07212643
0.1290988
0.1894995
0.2573844
0.2758965
0.2725141
0.2892801
0.328779
0.3236495
0.2323906
0.1333291
0.04304946
-0.07667127
-0.1620212
-0.1661752
-0.1492021
-0.1385847
-0.1482148
-0.1929333
-0.2208951
-0.2364131
-0.2732216
-0.3019255
-0.3110037
-0.2961368
-0.2611373
-0.2323961
-0.1782025
-0.08100624
0.002291683
0.06899948
0.1614916
0.2413466
0.2763238
0.2984702
0.303392
0.2766827
0.2188158
0.1581744
0.13976
0.1591944
0.1706308
0.1424421
0.1110939
0.07860353
0.02549047
-0.01423784
-0.04107035
-0.05707747
-0.06141427
-0.06754462
-0.05424606
-0.0136911
0.01311068
0.008815353
-0.0119811
-0.05043628
-0.07789989
-0.05884372
-0.03219103
-0.05012998
-0.08041542
-0.1044693
-0.1664516
-0.2110594
-0.1836156
-0.1504308
-0.1200339
-0.06899176
-0.004896721
0.06302653
0.09317782
0.1062113
0.1312652
0.1317445
0.1169745
0.1094531
0.1939179
0.2192964
-0.1597207
-0.5977151
-0.7782977
-0.8302628
-0.4905344
0.2970384
0.7305651
0.1137532
-0.6397064
-0.423453
0.5335143
1.684134
2.215364
1.783229
1.00349
0.2204043
-0.5396591
-1.14346
-1.408065
-1.263184
-0.8896362
-0.4966247
-0.1746225
-0.02381204
-0.1343983
-0.4610852
-0.7760236
-0.7973772
-0.4732709
0.02610911
0.5106221
0.7781723
0.7357989
0.4422225
0.06649613
-0.1728027
-0.2096477
-0.03362995
0.3017644
0.7188634
1.170706
1.415704
1.242136
0.7476908
0.1692505
-0.3636942
-0.7239124
-0.7681597
-0.5896428
-0.4026932
-0.3332406
-0.4172987
-0.5776503
-0.6795607
-0.6755359
-0.5139491
-0.1820464
0.1776421
0.4571566
0.6149763
0.6292886
0.5247381
0.3345361
0.08821982
-0.1568029
-0.3503869
-0.4824059
-0.5619669
-0.6021734
-0.5702992
-0.4472795
-0.269634
-0.08900354
0.0558502
0.1325084
0.1115054
0.0722659
0.1102859
0.2315778
0.4041064
0.5573809
0.6340299
0.5879391
0.4256862
0.2469987
0.1277894
0.07346956
0.04934593
0.03289725
0.02278171
0.01534933
0.006256745
-0.004755568
-0.03676323
-0.1134834
-0.1492487
-0.08683576
-0.02655727
-0.02134756
-0.04939158
-0.1164079
-0.1980901
-0.2606439
-0.3121178
-0.3363215
-0.311367
-0.200895
-0.03369428
0.07410194
0.1191837
0.1166439
0.08560555
0.07448353
0.06418792
0.06336183
0.06254672
0.02931966
-0.02127245
-0.06252497
-0.0687786
-0.05564639
-0.04960183
-0.03005556
0.002878984
0.02789835
0.05364623
0.04152652
-0.01875723
-0.0355584
0.01734431
0.07895013
0.1244261
0.146305
0.1244058
0.09721514
0.08551736
0.05491794
0.03731593
0.05200733
0.05009271
0.03044598
0.02374166
0.03244926
0.03534531
0.0110232
-0.02626347
-0.04042387
-0.02616391
-0.003285546
0.01422648
-0.006468323
-0.06405613
-0.1180557
-0.1811626
-0.2425574
-0.237914
-0.1937001
-0.1853736
-0.1970789
-0.1800962
-0.1244498
-0.0616103
-0.02324024
0.01063231
0.0638843
0.1254451
0.1526583
0.1366465
0.1280837
0.1440193
0.1848559
0.2406039
0.2606572
0.2304374
0.1814958
0.1470785
0.1182305
0.07333635
0.01333863
-0.04543493
-0.04157201
0.02229325
0.07516365
0.08948904
0.07233406
0.06043198
0.04170553
-0.01230933
-0.09131729
-0.1850267
-0.2414321
-0.270235
-0.2950047
-0.282214
-0.2533826
-0.2124724
-0.1627957
-0.1091387
-0.04406606
-0.01054948
-0.02236048
-0.04402854
-0.02152807
0.03038849
0.06194621
0.09740411
0.131465
0.1404321
0.129267
0.10627
0.09201529
0.06959912
0.03892307
0.03759659
0.05103738
0.07218537
0.103494
0.09193312
0.04424472
0.01451179
0.001907563
0.02057441
0.05447164
0.05952082
0.08741581
0.1379754
0.1320262
0.0800086
0.0009667667
-0.08777819
-0.1428908
-0.178154
-0.1974667
-0.1954217
-0.182359
-0.1409702
-0.07821658
-0.02308025
0.02859337
0.07555587
0.06905374
0.001205095
-0.07752508
-0.1222745
-0.1129062
-0.07340614
-0.009625283
0.05933377
0.09708592
0.1144395
0.117197
0.1321999
0.1657697
0.1909509
0.2109854
0.2076503
0.155625
0.07275065
0.001374133
-0.06290124
-0.1335335
-0.1816602
-0.1964673
-0.2071167
-0.2366452
-0.2051621
-0.09470183
-0.02812881
-0.03702238
-0.08394895
-0.08917087
-0.008108283
0.05687876
0.07446574
0.0933123
0.1063323
0.1121012
0.1082322
0.08755178
0.05353779
-0.001913048
-0.04589435
-0.0320637
0.008784788
0.03822949
0.07853498
0.1103402
0.08492126
0.03356574
-0.005708387
-0.04242725
-0.07167661
-0.07685649
-0.06622869
-0.04529508
-0.01655179
0.002786082
0.01317117
0.02914353
0.04189867
0.01829754
-0.01369921
-0.006125491
0.006595099
0.02529188
0.0698111
0.09690956
0.07702203
0.02118266
-0.03222037
-0.07165278
-0.1014985
-0.1126172
-0.09736377
-0.06131032
-0.01475195
0.04327082
0.07696195
0.08856073
0.08975004
0.05035754
0.004326429
-0.02153497
-0.03212837
-0.03565336
-0.06425869
-0.1070334
-0.1263531
-0.1331609
-0.1240124
-0.0929113
-0.0720307
-0.04985566
-0.04172225
-0.044437
-0.02079511
-0.01480029
-0.01019943
0.04674004
0.1356433
0.1903495
0.1740433
0.1474378
0.1488057
0.1571576
0.1672553
0.172494
0.1311145
0.03852121
-0.03706058
-0.0828371
-0.1072797
-0.10246
-0.09093234
-0.04763808
0.01547226
0.03345577
0.02050046
-0.01165245
-0.05555524
-0.07037763
-0.06619018
-0.06733796
-0.06634156
-0.05236267
-0.02918454
-0.02384998
-0.05285972
-0.06874456
-0.06143468
-0.05488812
-0.005017044
0.06004412
0.09108763
0.08887876
0.03016449
-0.05408277
-0.1350709
-0.2048166
-0.212356
-0.1579098
-0.07767413
0.01509519
0.1123847
0.2087761
0.260478
0.2354994
0.1829201
0.1472345
0.1085891
0.08068118
0.0943674
0.09195187
0.05788383
0.04988138
0.05556814
0.03827259
0.008248213
-0.03138065
-0.07431241
-0.09909733
-0.1065938
-0.1014822
-0.09544059
-0.0734053
-0.02633237
-0.003904825
-0.008739787
0.001023087
0.01976992
0.002911898
-0.05541359
-0.1338397
-0.2172766
-0.3150385
-0.3730103
-0.1879792
0.1951234
0.4763885
0.4766431
0.1475806
-0.3006627
-0.5768145
-0.6136001
-0.4627884
-0.2348163
-0.01992893
0.1543171
0.2673986
0.3205833
0.32924
0.3357976
0.3159901
0.2490254
0.3339252
0.5928594
0.7484465
0.6437128
0.2834591
-0.1869779
-0.5594077
-0.7189379
-0.6795443
-0.5253604
-0.3369336
-0.1646813
2.289718e-05
0.1287324
0.2230874
0.3064298
0.2970824
0.2148323
0.1333754
0.05085122
-0.01861188
-0.06584836
-0.1041601
-0.1739124
-0.2715952
-0.3503223
-0.3594879
-0.2814025
-0.1944267
-0.09331755
0.06105581
0.1902458
0.261577
0.274921
0.2227226
0.1566976
0.1103954
0.09034802
0.1007
0.1155018
0.1017485
0.05575303
0.004910848
-0.04357604
-0.1076393
-0.1643773
-0.1665319
-0.1272215
-0.09468696
-0.09844889
-0.1412489
-0.1955489
-0.2207353
-0.1911937
-0.1282479
-0.05441228
0.004680544
0.0192218
0.0428327
0.1175785
0.2098898
0.2876465
0.3007641
0.2241814
0.1198386
0.05206252
0.01454506
-0.03058458
-0.05340151
-0.0275093
-0.01541204
0.0008934986
0.05565993
0.0854813
0.1034682
0.1246735
0.1485863
0.197778
0.184674
0.1882315
0.2264441
0.03263282
-0.1752137
-0.07084722
0.07446542
0.02093017
-0.1607505
-0.3416382
-0.4438343
-0.4760775
-0.4594082
-0.4337928
-0.3583319
-0.1637075
0.02998758
0.1362988
0.1453371
0.03729475
-0.08559397
-0.1338174
-0.1125671
-0.06176541
-0.01280682
0.0140935
-0.01672469
-0.05024241
-0.0251451
0.02328444
0.09062403
0.1789726
0.2258409
0.2231251
0.2332898
0.2518658
0.264383
0.2816604
0.2855398
0.2914159
0.3128797
0.3545397
0.4240987
0.5198547
0.6649103
0.8303803
0.9996035
1.206681
1.366326
1.39118
1.348642
1.230081
0.9463645
0.4082782
-0.6826204
-2.425442
-4.387705
-6.165536
-7.504654
-7.884167
-6.803919
-4.356864
-1.067735
2.31236
4.88249
6.099923
6.008468
4.895584
3.32735
2.10216
1.544022
1.683239
2.375534
2.754589
2.435914
2.038
1.405047
0.1899707
-1.017354
-2.120765
-3.243631
-3.998072
-4.316671
-4.243801
-3.660107
-2.596488
-1.273967
0.03069957
1.185013
2.191667
2.956225
3.330901
3.34575
3.099606
2.659756
2.106457
1.524191
0.9933001
0.4468827
-0.2678625
-1.132341
-2.100378
-3.107491
-3.875169
-4.223634
-4.185497
-3.757314
-2.982856
-1.998714
-0.9034446
0.2094616
1.202867
1.975578
2.481839
2.73517
2.803178
2.68837
2.373628
1.909459
1.355372
0.7697827
0.2313517
-0.1693996
-0.3838958
-0.4483039
-0.425762
-0.3562785
-0.2994094
-0.2768892
-0.2520892
-0.2394433
-0.2488683
-0.2762687
-0.3291719
-0.3652444
-0.34673
-0.2633562
-0.1593093
-0.07249428
0.03787943
0.1425219
0.2183383
0.2858745
0.2761585
0.1635846
-0.004046445
-0.1911921
-0.3546244
-0.4849984
-0.5808957
-0.5834962
-0.4929456
-0.3758056
-0.2520347
-0.1414155
-0.03353198
0.1023203
0.2107964
0.247612
0.2527786
0.2794973
0.3027486
0.2530156
0.1543217
0.08660399
0.0801489
0.09933186
0.11348
0.1638453
0.2408448
0.2483821
0.1669053
0.07039371
0.03544203
0.05147019
0.02546491
-0.05331027
-0.1207642
-0.1662029
-0.2188087
-0.282323
-0.3198043
-0.3058728
-0.2349163
-0.1210843
-0.02240936
0.04433921
0.1109277
0.1562672
0.179189
0.1995001
0.1910471
0.182676
0.2002023
0.187589
0.1105639
-0.005678859
-0.1330222
-0.249145
-0.3189347
-0.3328237
-0.2930178
-0.1725057
0.006066285
0.1436237
0.2168067
0.2414246
0.2097439
0.1863063
0.1939533
0.2003837
0.1952073
0.1408923
0.03729753
-0.06307437
-0.1308217
-0.171217
-0.190711
-0.1955773
-0.2185535
-0.2569343
-0.2622661
-0.2263512
-0.1547949
-0.06231309
0.0158365
0.08978169
0.1755902
0.2463115
0.284567
0.3101594
0.3464848
0.3742467
0.3146894
0.1580098
0.0005120686
-0.1185638
-0.1993249
-0.2424408
-0.2724437
-0.2844974
-0.2765638
-0.254193
-0.2214895
-0.2026369
-0.1946363
-0.188382
-0.1639183
-0.08797592
0.006323023
0.08117326
0.1493527
0.210502
0.2336875
0.2335543
0.23704
0.212702
0.1883137
0.1632739
0.09190204
0.04487825
0.03209613
0.01361672
0.01686667
0.04364309
0.07360756
0.05045874
-0.03823407
-0.1267091
-0.1922865
-0.2217636
-0.2183667
-0.2116072
-0.1675815
-0.07516081
0.001140791
0.03071722
0.0424033
0.07661918
0.1153548
0.1175493
0.1058592
0.09909683
0.08266869
0.0563635
0.03894256
0.03235358
0.03038503
0.04177895
0.01203497
-0.0914172
-0.1979575
-0.2439806
-0.1895429
-0.06823602
0.04462262
0.1262692
0.1501351
0.1270958
0.09896993
0.07470426
0.06477951
0.05606731
0.03459986
0.01509446
-0.002597622
-0.01643271
-0.01900399
-0.02676805
-0.05039619
-0.0723306
-0.09204818
-0.1216255
-0.1377072
-0.11781
-0.07734434
-0.04233531
-0.01874092
-0.004247798
0.001426081
0.01494935
0.02166801
-0.00688796
-0.02114488
0.0178872
0.08406062
0.1435662
0.1658058
0.1703409
0.1649391
0.1196741
0.05943559
0.008787688
-0.03705838
-0.0726921
-0.1047176
-0.142746
-0.1537559
-0.09547486
0.01471675
0.1268853
0.1725303
0.1653855
0.188016
0.143867
0.0390793
-0.06110138
-0.1594636
-0.1297405
-0.2780756
-0.7155647
-0.9564107
-1.000374
-0.769823
0.2913879
1.274947
0.6431909
-0.4648544
-0.4932897
0.2438726
1.476464
2.498468
2.392591
1.567728
0.6324277
-0.3204755
-1.171971
-1.756263
-1.953874
-1.735692
-1.202274
-0.5760222
-0.1496252
-0.05813791
-0.2468861
-0.5356829
-0.6874331
-0.6090572
-0.2975038
0.1099489
0.3966183
0.5999707
0.7653849
0.7881038
0.679117
0.6082577
0.6715537
0.7702339
0.876389
1.050452
1.189113
1.068117
0.6630453
0.1994082
-0.2279717
-0.6513011
-1.056888
-1.449098
-1.676886
-1.503283
-1.02337
-0.5279521
-0.1507781
0.1157667
0.2882018
0.3324855
0.2775005
0.2072175
0.1536856
0.1560007
0.2012838
0.2198747
0.1731505
0.01334729
-0.2288602
-0.4226025
-0.5002143
-0.4349327
-0.2325092
-0.00657879
0.1703226
0.2985333
0.3572788
0.367504
0.3649843
0.362244
0.3797448
0.4109853
0.4104874
0.3554958
0.2553312
0.1158371
-0.01183065
-0.0811836
-0.1267161
-0.1578125
-0.1549426
-0.1422347
-0.1667857
-0.230231
-0.2588086
-0.2138638
-0.1186536
-0.009638842
0.05774217
0.05351187
0.00377888
-0.04613983
-0.06403539
-0.05520908
-0.04960689
-0.04037741
-0.03224424
-0.0645631
-0.1309173
-0.1963895
-0.226636
-0.1934272
-0.11933
-0.05431874
0.007649555
0.0886786
0.1657253
0.2166202
0.2282697
0.2121877
0.1899531
0.1697983
0.1598521
0.1306754
0.0797475
0.02765739
-0.03377955
-0.09047546
-0.1301529
-0.1504676
-0.1546534
-0.1556892
-0.1603793
-0.1622261
-0.1584985
-0.149814
-0.1130545
-0.06649364
-0.01305602
0.07044796
0.13938
0.2045851
0.25449
0.3099166
0.4129968
0.3413894
0.1399284
0.03483212
-0.03975052
-0.001059902
0.1814757
0.3443646
0.3756281
0.2365817
0.06653222
-0.05197058
-0.190464
-0.372342
-0.5289881
-0.6193012
-0.6576647
-0.6266415
-0.5442981
-0.4610964
-0.3645174
-0.2387861
-0.1119076
-0.0109177
0.06195259
0.1442431
0.2410747
0.3186996
0.3847834
0.4266376
0.4220238
0.3960342
0.3614491
0.3133142
0.2821811
0.2740496
0.2524231
0.2352323
0.2144434
0.1593034
0.1046743
0.064464
0.02264913
-0.04588686
-0.150581
-0.2554482
-0.3223839
-0.3512353
-0.3780098
-0.3911091
-0.3567023
-0.3050775
-0.2558253
-0.2063091
-0.1722685
-0.1414116
-0.1029056
-0.06441929
-0.02617859
0.02903186
0.1139715
0.1818384
0.2288322
0.2785975
0.3011113
0.2844348
0.2232958
0.1463848
0.08750235
0.0552304
0.05717982
0.04663683
0.005451963
-0.02674471
-0.03472747
-0.03304818
-0.0322718
-0.0371022
-0.07287087
-0.1073908
-0.0899775
-0.04868276
-0.02180197
-0.02342629
-0.02595186
-0.01517664
-0.002859529
0.02055429
0.04313081
0.05359301
0.04496473
0.01935601
-0.006963647
-0.04306799
-0.07796671
-0.07645921
-0.0593409
-0.05344394
-0.04768119
-0.02998357
-0.004272547
-0.006387249
-0.01685291
0.006952073
0.03993089
0.04275613
0.02045241
0.02149456
0.06106945
0.1094886
0.128354
0.1161268
0.09243115
0.06394183
0.04755689
0.02065438
-0.02193192
-0.04710069
-0.07781442
-0.1183504
-0.1306071
-0.09912876
-0.04280548
-0.002167411
0.01010303
0.0007139191
-0.03178748
-0.0661953
-0.05821547
-0.01242396
0.03056451
0.06305827
0.07739112
0.05514799
0.005344518
-0.03443952
-0.04041773
-0.02831368
-0.01518244
-0.004290904
-0.00501368
-0.0143871
-0.01399706
-0.0150341
-0.03938547
-0.06727032
-0.07087965
-0.06338891
-0.07579999
-0.09229685
-0.06579939
-0.01907057
0.00198515
0.02056743
0.04969957
0.07802868
0.09629542
0.08285902
0.05786044
0.04634808
0.04124777
0.04880241
0.1015913
0.1904014
0.2472656
0.2486734
0.1766482
0.05921475
0.0121682
0.0447062
0.06437601
0.02619708
-0.06653355
-0.1781279
-0.2281174
-0.2120868
-0.1902124
-0.1633635
-0.1301245
-0.08469217
-0.03371134
-0.01029991
-0.00549367
-0.01391019
-0.01607509
0.01254752
0.00398734
-0.05768083
-0.09245139
-0.09588529
-0.05527147
0.04685799
0.1267431
0.1638257
0.1920813
0.1906707
0.1685081
0.1569503
0.1469395
0.09228116
0.00111227
-0.05747563
-0.09678619
-0.1514885
-0.2024429
-0.2374071
-0.2402111
-0.2040657
-0.1706607
-0.1548485
-0.1126588
-0.04529897
0.03877733
0.1401693
0.2192906
0.2578517
0.2434072
0.1785538
0.1064509
0.06445056
0.05465632
0.04194097
0.0101935
-0.02313394
-0.05857531
-0.08981502
-0.1021691
-0.1122765
-0.1145671
-0.1085602
-0.1170187
-0.1101425
-0.0720951
-0.02566473
0.02520529
0.06391367
0.09734087
0.14426
0.1766319
0.1696014
0.1176243
0.07411792
0.02565667
-0.0311671
0.02709864
0.09306635
0.06197311
0.003064979
-0.09783724
-0.1910016
-0.2020064
-0.1173799
0.01826455
0.1209807
0.156114
0.1146369
0.04256087
-0.02134586
-0.07797309
-0.08173365
-0.03593282
-0.003358341
-5.045146e-05
-0.01706394
-0.03918013
-0.05172984
-0.05227331
-0.04606837
-0.03173868
-0.01645539
-0.01934544
-0.04153974
-0.08093993
-0.1141445
-0.1190715
-0.1122281
-0.113005
-0.1109774
-0.08620504
-0.05225634
-0.01806267
0.03486615
0.1072028
0.164889
0.1968715
0.218447
0.2039061
0.1535742
0.1074113
0.0801864
0.07239462
0.07209384
0.08160903
0.08691736
0.06959925
0.05880116
0.06181866
0.06484326
0.07876246
0.1146421
0.1390654
0.1183293
0.07482284
0.01228523
-0.06472383
-0.1223591
-0.1862187
-0.2624208
-0.3153468
-0.3492068
-0.3611326
-0.3563178
-0.3378669
-0.294158
-0.2384445
-0.1730286
-0.1039857
-0.04490063
0.03646668
0.1623977
0.281463
0.3653344
0.4001231
0.3587945
0.2904174
0.2140456
0.1157924
0.02544012
-0.04259792
-0.06097603
-0.02831763
0.01263954
0.03341496
0.02866387
0.0200718
-0.004513327
-0.04131213
-0.03569474
-0.0117891
-0.02319507
-0.07207288
-0.1253581
-0.1650119
-0.2136255
-0.2390094
-0.2304206
-0.2011165
-0.1354938
-0.08383605
-0.03985967
0.06840014
0.2317561
0.3758125
0.4503048
0.4709282
0.4441461
0.3762391
0.3011644
0.2308987
0.1802818
0.1414832
0.08627483
0.01509503
-0.06527728
-0.1202383
-0.1401092
-0.1648084
-0.1975034
-0.2379224
-0.2904148
-0.3421324
-0.4237438
-0.5281395
-0.5897392
-0.6120378
-0.5873483
-0.4948782
-0.3767874
-0.2353774
-0.07961532
0.05510943
0.1705408
0.2407948
0.2702436
0.2929927
0.2940548
0.284667
0.3013353
0.3316875
0.3277568
0.2939033
0.2649027
0.238399
0.2439647
0.2780771
0.294946
0.3220193
0.3842239
0.4948823
0.640422
0.761379
0.868584
0.958846
1.018604
1.110545
1.196831
1.163176
0.9704151
0.6694929
0.229293
-0.594651
-1.845758
-3.257517
-4.694929
-6.118565
-7.137982
-7.032842
-5.43173
-2.62091
0.8615392
4.0892
5.943927
6.302737
5.573988
4.00033
2.12958
0.7061459
0.08624806
-0.02157647
0.3062138
0.8672554
0.9705606
0.6312741
0.1627572
-0.1609053
0.02236724
0.5870439
1.107927
1.295431
0.9988895
0.15936
-1.019636
-2.070018
-2.694289
-2.84325
-2.510246
-1.760897
-0.6583999
0.7011018
2.063403
3.077782
3.489561
3.275239
2.471541
1.149568
-0.496569
-2.197061
-3.687294
-4.796994
-5.366515
-5.270874
-4.533681
-3.276458
-1.685184
0.02866134
1.57289
2.614288
3.104544
3.242887
3.186066
3.013089
2.724622
2.306465
1.803753
1.3053
0.8787218
0.4865789
0.1061949
-0.190409
-0.366451
-0.4642992
-0.532387
-0.5918185
-0.6856462
-0.8298854
-0.9480981
-0.996733
-0.9616227
-0.8216693
-0.6307066
-0.4399437
-0.2339556
-0.01870254
0.1422236
0.2268888
0.2606941
0.2657838
0.2745163
0.2809278
0.2540303
0.1933685
0.09922548
-0.02018891
-0.1108189
-0.1369693
-0.1215506
-0.09523327
-0.09048904
-0.1155123
-0.1280648
-0.1380566
-0.1765807
-0.2155929
-0.2458526
-0.240073
-0.1626696
-0.02496707
0.120558
0.19455
0.2054369
0.2167366
0.2393186
0.224017
0.1461139
0.070268
0.0339183
0.007464598
-0.01708355
-0.005862038
0.04805006
0.1053926
0.1400137
0.159897
0.1673939
0.1198218
0.02253476
-0.05506114
-0.07619949
-0.03947699
0.01286712
0.03972666
0.03288005
-0.01621413
-0.09515272
-0.1629243
-0.1804415
-0.1567491
-0.1202754
-0.08051952
-0.04837339
-0.01726139
0.02454043
0.05770244
0.06764545
0.05540207
0.002145427
-0.07044843
-0.114126
-0.1180948
-0.07247979
0.008927424
0.07596055
0.09806053
0.1140682
0.1521116
0.174786
0.1650165
0.1390559
0.1049975
0.06045889
0.01313469
-0.04422357
-0.09716492
-0.1165512
-0.111393
-0.06726205
-0.007370817
0.01455439
0.01470724
-0.008684326
-0.06807698
-0.114931
-0.1259953
-0.1215131
-0.1091113
-0.08905651
-0.009459231
0.09032786
0.0351451
-0.1229328
-0.1869262
-0.157951
-0.1015253
0.06060833
0.2270011
0.1929796
0.1790344
0.2481362
0.1674693
0.0425731
-0.01586708
-0.03680617
-0.03197857
-0.04016716
-0.03228406
-0.01472126
-0.01863695
-0.02824581
-0.03167343
-0.0371355
-0.04702378
-0.03438257
-0.01674408
-0.003290594
0.01232256
0.006820591
-0.03498992
-0.08909848
-0.1234256
-0.1403639
-0.08864001
0.01181843
0.05713043
0.07613551
0.1070866
0.133215
0.1504621
0.1412515
0.1309358
0.1370022
0.1234299
0.1015927
0.08493868
0.0562077
0.02616109
0.004598222
-0.003108033
0.0003470547
-0.01572476
-0.04884312
-0.08101062
-0.1194466
-0.1469939
-0.1610129
-0.1668006
-0.1596884
-0.1479863
-0.1119574
-0.07312936
-0.06831087
-0.065674
-0.04497692
-0.02805573
-0.02000211
-0.008215012
-0.0014622
0.01366553
0.05489371
0.09427642
0.1293297
0.1728702
0.1989751
0.2046263
0.1994257
0.1642261
0.1177881
0.09602966
0.09400353
0.08467196
0.02760653
-0.06912002
-0.1389692
-0.1710768
-0.1861229
-0.1925176
-0.2179875
-0.2419502
-0.2314986
-0.1961811
-0.1334117
-0.04259307
0.04656276
0.09015429
0.1007718
0.1082998
0.1144791
0.124365
0.1136085
0.09347299
0.08027225
0.05773004
0.0488424
0.04859793
0.03138068
0.003462891
-0.007322494
0.02064731
0.0664857
0.09759689
0.09902278
0.07819447
0.03523286
0.002461056
-0.05028939
-0.1605585
-0.2283492
-0.2196749
-0.05075751
-0.006157588
-0.3335336
-0.6119091
-0.993913
-1.170274
-0.08340569
1.320295
1.28631
0.3842994
0.02181852
0.2551091
0.9774231
1.889268
2.02755
1.313526
0.4227933
-0.3946202
-1.177881
-1.80579
-1.967839
-1.615387
-1.118423
-0.6417344
-0.2157358
-0.1002917
-0.3908958
-0.9274536
-1.426146
-1.557151
-1.145113
-0.3050565
0.6062542
1.416375
2.025417
2.26202
2.269561
2.033987
1.392963
0.7281106
0.4178867
0.3696896
0.4134343
0.4130087
0.2472586
-0.08169378
-0.5192251
-0.9786319
-1.283379
-1.292364
-1.044122
-0.7332363
-0.5289645
-0.4553704
-0.4613862
-0.4817038
-0.4555687
-0.3742858
-0.2637864
-0.1161191
0.07801568
0.2552981
0.31951
0.252517
0.1396656
0.03363983
-0.04968541
-0.09130165
-0.1407895
-0.1553863
-0.0821297
0.00558195
0.1158915
0.2365262
0.3277224
0.40863
0.4590536
0.4982435
0.5332285
0.517029
0.458382
0.3912264
0.3068149
0.2076882
0.1399164
0.08808742
0.0106336
-0.07769753
-0.1500329
-0.2150315
-0.2687165
-0.2951228
-0.3337308
-0.3728195
-0.4005851
-0.4411905
-0.4419148
-0.3784273
-0.2839507
-0.1832936
-0.113661
-0.0775312
-0.009414022
0.08707775
0.1537129
0.2076927
0.2638943
0.3025333
0.2992444
0.2495127
0.2142774
0.2109006
0.1841621
0.1171481
0.03278515
-0.04294071
-0.1198999
-0.2086617
-0.2784883
-0.3344576
-0.3790823
-0.3492381
-0.2481612
-0.09439576
0.1277157
0.2746878
0.2618045
0.1773805
0.0490705
-0.05520931
-0.06787246
-0.03963251
-0.01767753
-0.004099827
0.02540161
0.06543496
0.09669006
0.1129898
0.09743902
0.09435798
0.1532003
0.2374028
0.2906558
0.2797816
0.2346285
0.1921261
0.1494518
0.1390887
0.1530695
0.1237121
0.03436806
-0.08075189
-0.182837
-0.2720545
-0.376608
-0.4622493
-0.4846111
-0.4866669
-0.5018989
-0.4954187
-0.4430494
-0.3652261
-0.2631764
-0.1410602
-0.02793722
0.07879289
0.1739332
0.2480887
0.3033581
0.3480422
0.3992628
0.4395238
0.4378519
0.4004259
0.3576444
0.321491
0.3040223
0.3028074
0.2774933
0.2042283
0.1112468
0.0488268
0.007885011
-0.03244321
-0.08050302
-0.1558411
-0.2146507
-0.2292401
-0.2336653
-0.2545556
-0.2954395
-0.3378311
-0.3737447
-0.3960597
-0.3963842
-0.3579134
-0.2845423
-0.2016874
-0.1025747
-0.007549698
0.06829891
0.1234277
0.1498622
0.1567999
0.1445399
0.1456663
0.1619343
0.1539646
0.1233523
0.1088324
0.135015
0.145817
0.1343641
0.1483607
0.1520865
0.1451261
0.1411938
0.08609978
0.006210325
-0.04673
-0.07182523
-0.05780714
-0.02562914
0.02331211
0.07099614
0.07654035
0.08992803
0.09529458
0.0419744
-0.03110939
-0.1030762
-0.1487795
-0.158984
-0.162179
-0.1532141
-0.1224072
-0.06758238
-0.02424801
-0.02896873
-0.04069943
-0.03114832
-0.01773218
-0.01053791
0.002313592
0.01895379
0.00676149
-0.006245226
0.01467316
0.032467
0.02909305
0.01965962
0.033874
0.07013039
0.08435079
0.0885111
0.09353131
0.07391238
0.03332437
-0.02398788
-0.07949601
-0.111261
-0.1308295
-0.1365559
-0.1109627
-0.05624012
-0.0004122354
0.02992808
0.04863738
0.0729041
0.08405799
0.08031218
0.07110997
0.05349455
0.03987542
0.03028882
0.02067017
0.02437878
0.01447956
-0.02881072
-0.05549198
-0.05036541
-0.03085148
-0.00491211
-0.001200156
-0.002180469
0.01392143
0.02532506
0.03285412
0.04904893
0.06602079
0.04945942
-0.002568381
-0.0733348
-0.1428007
-0.1604089
-0.1625631
-0.1838204
-0.1716003
-0.1183926
-0.0429873
0.0256643
0.08054185
0.145994
0.1898023
0.1692404
0.1039638
0.05782805
0.0361958
0.002961925
-0.01263507
0.006374307
0.0266753
0.03993742
0.05791155
0.08027899
0.105597
0.1108933
0.08467034
0.07873813
0.07559067
0.03785747
0.01511058
-0.01064754
-0.051987
-0.08201202
-0.120125
-0.1524024
-0.1748382
-0.164637
-0.121841
-0.1113849
-0.1174521
-0.1232433
-0.1484807
-0.170248
-0.1559167
-0.12088
-0.06904443
0.05227556
0.2040722
0.2997167
0.3323052
0.3104392
0.2508824
0.1695071
0.08953935
0.04871054
0.02804814
0.0006091123
-0.03529986
-0.06021222
-0.04895545
-0.03802923
-0.05192638
-0.05623611
-0.04890497
-0.06672274
-0.09880184
-0.1161823
-0.1373205
-0.1491086
-0.1141547
-0.06996343
-0.05312449
-0.03090809
-0.0005539472
0.006301493
-0.01732307
-0.05680234
-0.07204521
-0.03726487
0.03906681
0.1333658
0.2264153
0.278857
0.2533072
0.1853769
0.1099909
0.03820989
-0.01366993
-0.01196047
0.04015522
0.04038973
-0.0353513
-0.09851098
-0.1047658
-0.06618711
-0.01935478
-0.006443823
-0.01248327
-0.003957978
-0.01118564
-0.03433375
-0.03380531
-0.02349601
-0.03429889
-0.05273279
-0.03452335
0.006084888
0.02053103
0.01611082
0.01330694
0.02044834
0.02612536
-0.0004965907
-0.04617884
-0.07543598
-0.09020519
-0.112682
-0.1341692
-0.1146586
-0.06556038
-0.02038829
-0.008070452
0.01290557
0.09933818
0.0362595
-0.1476982
-0.06571337
0.1798051
0.2864212
0.2383547
0.09795957
-0.03296818
-0.1209291
-0.1763617
-0.1676278
-0.1135234
-0.0254446
0.07065178
0.1305698
0.1605886
0.1479975
0.08866616
0.02049233
-0.02782227
-0.03630153
-0.02417527
-0.02580239
-0.02773772
-0.02625311
-0.02194888
0.006588992
0.0653668
0.1362078
0.1833772
0.2011046
0.2092912
0.2058093
0.1739902
0.1047796
0.0160774
-0.07105984
-0.1469544
-0.1975011
-0.2318597
-0.247427
-0.2363404
-0.2158538
-0.1897554
-0.1795389
-0.1758865
-0.1497662
-0.1352341
-0.1435043
-0.1281801
-0.07419471
-0.02542998
0.006061458
0.04423253
0.09401626
0.1556829
0.2309361
0.3145231
0.3639813
0.3520645
0.288401
0.1920126
0.1263375
0.08033293
-0.006225609
-0.0630208
-0.06153058
-0.08006626
-0.1333782
-0.2047434
-0.2718615
-0.3120118
-0.3338241
-0.3222488
-0.2564379
-0.1766166
-0.1375604
-0.1321295
-0.1223569
-0.07886314
0.01899638
0.1547731
0.2838084
0.362938
0.3944543
0.4289184
0.4848795
0.5353994
0.5567113
0.5384282
0.4790476
0.4015718
0.3037469
0.1565584
-0.01465444
-0.1873911
-0.3500459
-0.4672848
-0.5479919
-0.5948495
-0.6064079
-0.6148697
-0.618792
-0.606853
-0.5713781
-0.5118504
-0.429924
-0.297236
-0.1257834
0.01678464
0.106078
0.1801478
0.2468059
0.2890765
0.3243941
0.3512468
0.3482777
0.310122
0.2578314
0.2136778
0.1528798
0.06322306
-0.01896716
-0.03370387
0.03141017
0.09840486
0.1404329
0.2180151
0.3316812
0.4367484
0.5223936
0.5987617
0.7060183
0.8466875
0.9907839
1.13745
1.25626
1.299469
1.211244
0.9949788
0.6704335
0.18131
-0.5058281
-1.51259
-2.906201
-4.482839
-5.969561
-6.99534
-7.113385
-6.020343
-3.58653
-0.182676
3.274564
6.069483
7.548378
7.321798
5.681383
3.14159
1.026865
-0.00466172
-0.5221248
-0.4640883
-0.168478
-0.1809045
-0.482051
-0.9638461
-1.068639
-0.3010401
1.11938
2.449458
3.104224
2.793568
1.443705
-0.5047944
-2.442992
-3.916139
-4.578857
-4.300469
-3.189108
-1.465908
0.5470493
2.365739
3.52272
3.856461
3.487438
2.594484
1.393781
0.1167244
-1.204814
-2.537068
-3.632829
-4.350639
-4.655588
-4.489623
-3.852256
-2.772252
-1.337007
0.275336
1.799543
2.932568
3.550288
3.729158
3.57248
3.182355
2.634808
2.004496
1.368816
0.7864368
0.3164007
-0.04816056
-0.3229316
-0.4810049
-0.5487477
-0.6002442
-0.6543821
-0.7344716
-0.8498175
-0.8882296
-0.8356953
-0.7827459
-0.7175529
-0.6354841
-0.5331044
-0.3649364
-0.1644421
-0.003582292
0.1064746
0.2011524
0.2819304
0.3487881
0.3965493
0.3901917
0.3390938
0.221279
0.03376845
-0.1403061
-0.2515342
-0.2975545
-0.3121717
-0.328416
-0.3505992
-0.3485771
-0.2863331
-0.1891376
-0.0522297
0.1007735
0.1866021
0.2394179
0.277366
0.245184
0.15928
0.06454525
-0.009808434
-0.04665748
-0.0482026
-0.01997555
0.05732425
0.1624696
0.2211652
0.2353321
0.2605182
0.3107653
0.3397233
0.2923547
0.1811588
0.02929218
-0.1324787
-0.2536736
-0.3131675
-0.2994289
-0.2693173
-0.2663123
-0.235558
-0.154102
-0.0439099
0.06006988
0.1078385
0.09195757
0.04956217
-0.01387043
-0.05194147
-0.01283777
0.03290973
0.0599182
0.07539107
0.06075431
0.05194875
0.0311859
-0.01782815
-0.07118779
-0.1330422
-0.163382
-0.1290674
-0.03913907
0.08903648
0.1939179
0.2251607
0.1974523
0.1390564
0.08174313
0.05084192
0.02591226
-0.008758255
-0.03116642
-0.03292033
-0.02720699
-0.0223717
-0.01623188
-0.01131609
-0.02626315
-0.05492511
-0.08965185
-0.1418941
-0.1631516
-0.1233503
-0.07033692
-0.02200244
0.01973829
0.04060397
0.05539383
0.0867378
0.1222791
0.14392
0.1285377
0.04028783
-0.08681411
-0.1826268
-0.2022127
-0.1689697
-0.1423683
-0.08354656
0.03582384
0.1511248
0.2135778
0.2148023
0.1725788
0.1236301
0.0900976
0.04663996
-0.05557873
-0.2033024
-0.2981739
-0.2860903
-0.2042314
-0.09863629
-0.03230554
-0.02801985
-0.02872255
-0.0148868
0.0139498
0.08578959
0.1756145
0.2240496
0.224314
0.2113532
0.1986704
0.1657637
0.1184318
0.08060016
0.03594102
-0.02765197
-0.08692107
-0.1208624
-0.1386146
-0.1431576
-0.1228298
-0.11179
-0.1103466
-0.0666518
-0.01220587
0.003931496
-0.009183142
-0.03536334
-0.03919543
-0.02403957
-0.03266467
-0.05170819
-0.05041251
-0.03362466
-0.03593689
-0.06268197
-0.05868823
0.01606587
0.1248107
0.1916719
0.2176811
0.2426908
0.2253948
0.1792685
0.1849694
0.1996845
0.1660618
0.09259807
-0.0243783
-0.1434356
-0.2167104
-0.2441771
-0.2463116
-0.2417934
-0.2007019
-0.1442184
-0.1176209
-0.09176584
-0.08275298
-0.1024208
-0.1041521
-0.07311887
-0.02835937
0.007039409
0.03223827
0.05867837
0.1088106
0.1764788
0.2140932
0.2165349
0.2020492
0.1767275
0.1571514
0.1488346
0.1273325
0.0740716
0.002851417
-0.07216474
-0.1473133
-0.1983691
-0.2138963
-0.2088923
-0.1837866
-0.129662
-0.04843396
0.03254421
0.09753972
0.121325
0.09474467
0.03996132
-0.01520267
0.009768377
0.01684981
0.02978358
-0.007651906
-0.4623427
-0.9142957
-1.197157
-1.504836
-1.067845
0.280379
1.468256
1.52348
0.984408
0.9382444
1.275237
1.742033
2.074805
1.837265
1.244096
0.4744049
-0.5244085
-1.528449
-2.300355
-2.584748
-2.333506
-1.84735
-1.273273
-0.7610108
-0.5196156
-0.5530783
-0.8508031
-1.199876
-1.197513
-0.6836589
0.3049308
1.51143
2.531099
3.035163
2.906145
2.280918
1.372188
0.5551003
0.07420672
-0.1774215
-0.2015345
-0.03611743
0.06734657
0.006314936
-0.1551373
-0.3629684
-0.5540115
-0.7035685
-0.7882637
-0.7212337
-0.5510489
-0.4231772
-0.3739379
-0.3898396
-0.4381368
-0.463755
-0.4606837
-0.4442224
-0.3820854
-0.2536021
-0.1236904
-0.05776785
-0.04633727
-0.02309836
0.02793215
0.06261635
0.1115602
0.2043655
0.318002
0.4285321
0.4884477
0.5057088
0.5041739
0.4343119
0.3206504
0.2570411
0.2420895
0.2293456
0.2101733
0.176701
0.1230122
0.05900799
0.001116924
-0.04624291
-0.09159706
-0.1299774
-0.1807174
-0.2532149
-0.3171975
-0.3563639
-0.3449034
-0.2827668
-0.2110963
-0.1416252
-0.07624291
-0.02790628
-0.009171109
-0.01809269
-0.01456806
0.02940446
0.09296396
0.1411681
0.161768
0.1708361
0.156727
0.1015172
0.03645184
-0.02117654
-0.07461528
-0.1189448
-0.1433635
-0.1351588
-0.107679
-0.07640912
-0.03656622
0.02377316
0.06569999
0.05911287
0.05632759
0.05354179
0.0422823
0.05056129
0.04327844
0.01915279
-0.009374706
-0.03963562
-0.05376419
-0.07460071
-0.06741941
-0.01218284
0.0234287
0.02932085
0.02517885
0.02667465
0.04065914
0.05215042
0.0631024
0.07795097
0.08885032
0.09141093
0.1204913
0.1725939
0.2070955
0.2256897
0.2006751
0.1337796
0.07143312
0.02727999
0.003510551
-0.02100343
-0.03960478
-0.05049086
-0.09586021
-0.1598173
-0.2100199
-0.266591
-0.3604884
-0.4719757
-0.5475028
-0.554135
-0.503642
-0.443639
-0.3577652
-0.2134977
-0.03900805
0.1536327
0.3561139
0.5221201
0.6001019
0.6049339
0.584305
0.5560437
0.5244304
0.4588027
0.349959
0.2344094
0.1258426
0.0279708
-0.06913068
-0.1663519
-0.231302
-0.2739667
-0.3192515
-0.3684162
-0.3999445
-0.3748048
-0.3177589
-0.2608948
-0.1856965
-0.0882917
0.006378266
0.08227095
0.148752
0.2078338
0.2397209
0.2154517
0.1567357
0.1228129
0.1059937
0.07802624
0.04736837
0.00142035
-0.07016066
-0.1335605
-0.1755925
-0.1977219
-0.1944933
-0.1914406
-0.1903144
-0.1806741
-0.157166
-0.1035986
-0.052825
-0.007658588
0.08303365
0.196854
0.2737246
0.3188946
0.3505276
0.3412296
0.2801444
0.2050053
0.1500398
0.09765252
0.03562118
-0.01462254
-0.06027475
-0.1106477
-0.156985
-0.1872827
-0.199351
-0.2132654
-0.2051329
-0.1479674
-0.08843528
-0.05644003
-0.05135157
-0.04942549
-0.0142331
0.04028656
0.09680598
0.1198174
0.09445431
0.04180903
0.001994465
-0.007339674
-0.05465218
-0.1039169
-0.105565
-0.1080663
-0.1765145
-0.1307997
0.2074808
0.453523
0.3868622
0.1405402
-0.1784825
-0.3729359
-0.3684044
-0.2068062
0.006597
0.1404761
0.1701244
0.1329501
0.113146
0.1457684
0.1713618
0.1776637
0.1783721
0.1449241
0.0786028
0.01193862
-0.03618451
-0.07705051
-0.1057511
-0.07578624
-0.01291748
-0.006824478
-0.05538585
-0.08687948
-0.09407565
-0.1044278
-0.1108892
-0.1299102
-0.1812547
-0.2287819
-0.252467
-0.2626248
-0.2275023
-0.1403333
-0.03941895
0.07054668
0.168716
0.2521754
0.3136456
0.314322
0.300486
0.2841063
0.2277653
0.1567292
0.0879878
0.02994512
-0.01137866
-0.03676906
-0.03884136
-0.03132471
-0.02985335
-0.04361805
-0.07441566
-0.08119279
-0.03886431
-0.06331655
-0.2247828
-0.3693892
-0.4121069
-0.3807233
-0.2703325
-0.1376514
-0.01402361
0.1153517
0.2325405
0.3379699
0.4085805
0.4218832
0.3872921
0.320577
0.261667
0.202525
0.09737292
-0.02745939
-0.1318842
-0.2326575
-0.3125647
-0.3314984
-0.2835415
-0.1912668
-0.1084989
-0.05243742
-0.0168993
-0.004386531
0.008704876
0.03603322
0.0461594
0.01918035
-0.01251161
-0.02199283
-0.01573164
-0.01177057
-0.004916798
0.01600833
0.0370623
0.06691552
0.105161
0.1316804
0.1394789
0.1194044
0.08553433
0.04120192
-0.003119721
-0.02075504
-0.03031642
-0.04955883
-0.0683458
-0.07651789
-0.09358199
-0.1042487
-0.08524919
-0.06558867
-0.04168392
-0.03511504
-0.05147414
-0.04539732
-0.02196028
0.01313599
0.05012435
0.0781178
0.1057227
0.1076655
0.06944077
0.02339009
-0.01744321
-0.05601773
-0.06671305
-0.04420038
0.00396909
0.07358677
0.1039212
0.08313802
0.07888736
0.08239128
0.07292835
0.07480866
0.08185756
0.08052431
0.05076914
-0.01123548
-0.07355887
-0.1331922
-0.198834
-0.2463647
-0.2655373
-0.2568895
-0.1953392
-0.1070403
-0.04103331
0.002661797
0.02337258
0.03770923
0.06992488
0.1041769
0.1108735
0.08999007
0.07494268
0.08299024
0.1014987
0.1142436
0.1105708
0.09111084
0.07426779
0.05738433
0.03367325
0.04003938
0.0681854
0.07389666
0.06616384
0.05106692
0.01953364
-0.03263836
-0.09513182
-0.1303797
-0.1407243
-0.1371011
-0.1069371
-0.05956622
-0.0004693616
0.04771657
0.06021291
0.03987466
0.000442775
-0.01396026
-0.002989423
0.007274229
0.02885257
0.04598005
0.04409482
0.02662439
-0.01426586
-0.06742934
-0.1116823
-0.1358264
-0.1381378
-0.1190487
-0.07628482
-0.03444721
-0.007312013
0.0298656
0.05833691
0.07012294
0.1006122
0.1339782
0.1574348
0.17761
0.1702574
0.1332526
0.07728004
0.02009827
-0.02185219
-0.07508153
-0.1371403
-0.1731028
-0.1527898
-0.09446252
-0.06081359
-0.06893867
-0.1161709
-0.1780328
-0.2416825
-0.3168307
-0.3696923
-0.3780195
-0.3048682
-0.136645
0.02481599
0.1379208
0.2490818
0.3541047
0.4245155
0.432127
0.3946286
0.3685297
0.364921
0.3725737
0.4085797
0.4582972
0.461703
0.4080867
0.3169713
0.2155034
0.1071471
-0.0262362
-0.1692769
-0.3039019
-0.4084934
-0.4972962
-0.5906849
-0.6568385
-0.6793951
-0.6815715
-0.6650706
-0.5978569
-0.4883974
-0.3643115
-0.2434509
-0.1305619
-0.01367684
0.1104755
0.2193466
0.2702556
0.2985112
0.3123589
0.2850819
0.2710607
0.2489756
0.2121927
0.2050978
0.2036589
0.1958217
0.1595754
0.08591671
0.04684084
0.09569397
0.1892283
0.3017262
0.4391524
0.5666884
0.6824011
0.7862194
0.8946153
1.057641
1.211335
1.284021
1.304574
1.253908
1.053347
0.6706072
0.1536086
-0.5628667
-1.691099
-3.236143
-4.951865
-6.499066
-7.520102
-7.547613
-6.121407
-3.305079
0.4037429
4.133279
6.891336
8.100671
7.604163
5.825487
3.497519
1.391554
-0.2913574
-1.219488
-0.7667989
-0.2009489
-0.1666846
0.1439889
0.07994288
-0.6624815
-1.246606
-1.236064
-0.6108831
0.3766762
1.221237
1.445533
0.9427068
-0.183767
-1.662922
-2.930771
-3.413022
-2.854537
-1.430126
0.4828107
2.386276
3.701144
4.153231
3.754291
2.618283
1.115446
-0.3134186
-1.531334
-2.56232
-3.280883
-3.570132
-3.508997
-3.240097
-2.870379
-2.435637
-1.899053
-1.178044
-0.2254953
0.8519745
1.82443
2.527793
2.900455
2.926611
2.715788
2.374478
1.909259
1.388353
0.9027863
0.4800841
0.1384975
-0.1062782
-0.2670524
-0.3972691
-0.5480602
-0.7240046
-0.8839369
-0.9751829
-0.9598358
-0.8070087
-0.581558
-0.3479044
-0.09171276
0.1184406
0.2176072
0.2262092
0.1965152
0.1444266
0.07671808
0.05897283
0.06410228
0.05613559
0.06304528
0.04659063
0.01182212
-0.03011844
-0.1140057
-0.1765388
-0.1714714
-0.1359044
-0.111664
-0.1612454
-0.2640752
-0.3579825
-0.4287157
-0.406169
-0.2598056
-0.07166512
0.07744423
0.1342442
0.1037167
0.06454919
0.07112741
0.1141061
0.1799161
0.2651869
0.3264753
0.3391832
0.3444397
0.3473762
0.3180127
0.2580884
0.1768136
0.07869244
-0.0096305
-0.08863761
-0.1603677
-0.1917457
-0.2114641
-0.2318134
-0.1942435
-0.1118009
-0.04895393
-0.02472317
-0.03951894
-0.07651088
-0.09829111
-0.1027728
-0.0969374
-0.0561667
0.01699376
0.1142462
0.2093363
0.2069121
0.1254951
0.04764264
-0.01039091
-0.000724368
0.02531938
-0.02431812
-0.07621349
-0.07318292
-0.05466075
-0.02431189
0.007578511
0.01763558
0.02483886
0.03775674
0.055277
0.06449985
0.04383056
0.003100274
-0.03346584
-0.06184002
-0.09929696
-0.130475
-0.1285624
-0.1042947
-0.04162032
0.06074118
0.1352071
0.1767486
0.2104817
0.2070504
0.1734646
0.1191831
0.05083311
0.01237029
-0.01973758
-0.07739954
-0.1362178
-0.181686
-0.2038104
-0.2028822
-0.1856385
-0.1492323
-0.07981493
-0.00656169
0.03490847
0.06448637
0.06685351
0.04445501
0.02231229
-0.00797299
-0.02527513
-0.009938895
0.03185556
0.0571584
0.05278495
0.06095985
0.0532525
-0.00242382
-0.07275647
-0.1189055
-0.1390414
-0.1417251
-0.08281005
0.01222434
0.05089143
0.0333126
0.00569824
0.002506297
0.03747531
0.09471314
0.1618091
0.2314984
0.2700775
0.2672228
0.2499162
0.1871107
0.08801035
0.01399031
-0.05680548
-0.1466938
-0.2420416
-0.3169137
-0.3306571
-0.2804913
-0.2134929
-0.1456699
-0.06534403
-0.007822288
0.03134417
0.07449338
0.0896832
0.08641379
0.1072987
0.1375974
0.1514356
0.1512932
0.1225064
0.08998631
0.0673636
0.02437168
-0.005223012
-0.02049197
-0.0509778
-0.06276739
-0.04529982
-0.01657563
-0.004167128
-0.03733587
-0.07143769
-0.07456046
-0.07528733
-0.06501997
-0.04409708
-0.02301969
0.001436774
0.00192707
-0.01340508
-0.03338839
-0.06003596
-0.06371018
-0.06058125
-0.0558789
-0.03404541
-0.01296491
0.01032765
0.03417703
0.04618753
0.04817438
0.05296951
0.06836182
0.1009067
0.1384157
0.1377176
0.1278691
0.1388736
0.1159189
0.05678376
0.01331682
-0.005250036
-0.01857269
-0.03460629
-0.06417552
-0.0956722
-0.08947352
-0.04905941
0.01620536
0.09488691
0.1422742
0.1452546
0.1073365
0.03667348
-0.02836453
-0.09740562
-0.1311167
-0.1547022
-0.1493111
-0.05787291
-0.4242194
-1.024495
-1.261047
-1.729249
-1.739499
-0.1122178
1.703407
1.822641
0.9144881
0.553272
1.065688
2.264181
3.276035
2.985134
1.745853
0.4072247
-0.8607525
-2.055969
-3.050769
-3.535232
-3.320739
-2.647909
-1.751745
-0.7988401
-0.07684448
0.2837499
0.3420494
0.2268368
0.1278302
0.08532739
0.1556035
0.5362853
1.24389
2.118353
2.765747
2.742968
2.02978
0.9763811
0.09016611
-0.3383798
-0.4470146
-0.3962677
-0.2676348
-0.1985518
-0.23759
-0.3502725
-0.392045
-0.416375
-0.5764694
-0.6954151
-0.8073143
-0.8792657
-0.8034715
-0.7848086
-0.671115
-0.4452143
-0.2844697
-0.01636412
0.2562269
0.3829778
0.4578645
0.4375468
0.3279004
0.1850428
0.004098762
-0.1649128
-0.297416
-0.3731999
-0.350019
-0.2626792
-0.1327884
0.07607036
0.3136472
0.4794938
0.5406975
0.524788
0.4933242
0.4597811
0.3809701
0.283775
0.2228959
0.1677957
0.07367542
-0.05893514
-0.1970758
-0.2741183
-0.2800632
-0.2812138
-0.267579
-0.2184018
-0.1698741
-0.1117983
-0.05848273
-0.02256829
0.02108724
0.05926012
0.06891299
0.04468488
0.02886855
0.04342987
0.06563348
0.07692479
0.05528249
0.01495837
-0.02962865
-0.07316307
-0.1027622
-0.1106181
-0.09682083
-0.08960103
-0.07913764
-0.04349316
0.007396581
0.07176709
0.151758
0.2383264
0.286186
0.2725
0.2079086
0.09674396
-0.02669748
-0.1419204
-0.2467485
-0.3076803
-0.319286
-0.2972786
-0.2347094
-0.157914
-0.09296969
-0.03060432
0.01147166
0.03274056
0.05583612
0.06201447
0.06170934
0.07285141
0.0602243
0.03269092
0.03109252
0.05715968
0.09627787
0.1182981
0.1345319
0.1958574
0.2680083
0.3065994
0.3160539
0.2639631
0.1628368
0.08282996
0.03265502
0.02425459
0.005868535
-0.1015492
-0.1762093
-0.2226572
-0.3198688
-0.3326723
-0.3161113
-0.3881645
-0.4763833
-0.5415279
-0.5482078
-0.4710043
-0.3232931
-0.1293743
0.05637547
0.2222633
0.3805168
0.508357
0.5767087
0.5867285
0.5439385
0.4379405
0.3165986
0.233255
0.1703911
0.1250973
0.09265991
0.05465061
0.008593481
-0.05786061
-0.1274412
-0.1901578
-0.2467848
-0.2714759
-0.2741644
-0.2544644
-0.1981831
-0.1387049
-0.1009288
-0.08612372
-0.06922659
-0.01958602
0.03884491
0.07252192
0.1008883
0.1339875
0.1246917
0.07850105
0.03136906
-0.003191015
-0.02901192
-0.1010745
-0.1710214
-0.171205
-0.1507268
-0.1135438
-0.05364285
0.004446573
0.04993121
0.08849305
0.1105421
0.05091414
-0.03954911
-0.02952962
0.04341658
0.1153275
0.1990793
0.2395028
0.2047776
0.1319275
0.06239973
0.05642316
0.07245223
0.03540455
0.002521736
-0.02001172
-0.0634358
-0.07457916
-0.0658664
-0.04704673
-0.01308716
-0.008308262
-0.02727192
-0.06152347
-0.08251807
-0.07388438
-0.07282031
-0.07904335
-0.08509066
-0.1056732
-0.1454192
-0.1603597
-0.1222662
-0.06172338
0.00166618
0.05168713
0.0696036
0.06514864
0.06545188
0.07279912
0.07512408
0.07669021
0.07334825
0.05963919
0.04150978
0.0227397
0.0006453037
-0.01487278
0.0151806
0.07863748
0.1019467
0.08429832
0.06659176
0.03704385
-0.003036975
-0.02385688
-0.02904874
-0.05721172
-0.1073972
-0.1110296
-0.06267443
-0.02265079
0.0006453015
-0.004951839
-0.03435773
-0.03757771
-0.02027859
0.002016923
0.03092693
0.06951229
0.1193096
0.1288418
0.08247158
0.02324834
-0.02956643
-0.06811419
-0.09931378
-0.1068469
-0.08509161
-0.07664906
-0.06937602
-0.04539989
-0.01230862
0.04034057
0.09787302
0.1359471
0.1314747
0.07811289
0.009827878
-0.03591546
-0.06043463
-0.08524247
-0.09837773
-0.09293702
-0.07564101
-0.05534812
-0.04706803
-0.03261298
-0.01572593
-0.01055482
0.01100932
0.03650898
0.04297966
0.04494424
0.0262671
0.001836904
0.02427212
0.07366525
0.09655013
0.1004354
0.1173976
0.1175651
0.09435507
0.07389406
0.04613074
0.009555577
-0.03502616
-0.06340999
-0.06405392
-0.05477012
-0.04715058
-0.06042759
-0.0844689
-0.0925732
-0.07256482
-0.0435096
-0.01964888
0.0129005
0.04821841
0.0527374
0.0374803
0.05477855
0.06729305
0.03657958
-0.004143663
-0.04132402
-0.06130269
-0.06728499
-0.08870543
-0.1123969
-0.1041269
-0.06580064
-0.01695397
0.03029398
0.06944882
0.08419671
0.05599811
0.008481284
-0.0193257
-0.01811346
0.006004683
0.02858871
0.05096341
0.09012898
0.08996867
0.03890262
0.005183424
-0.004279973
-0.01047658
-0.0106147
0.009302895
0.05316182
0.09482143
0.0999737
0.05888944
-0.01679179
-0.110976
-0.1633091
-0.1466127
-0.1126333
-0.1001426
-0.117295
-0.1265692
-0.114472
-0.08881093
-0.01132144
0.1026492
0.2163557
0.3078146
0.3166338
0.2391873
0.1431028
0.06539196
-0.012325
-0.09611899
-0.13752
-0.1352879
-0.1388762
-0.1207406
-0.1031058
-0.2029865
-0.3340608
-0.3557818
-0.2893501
-0.1294362
0.0744973
0.2211471
0.2855138
0.2751092
0.2544529
0.2651339
0.2586937
0.213883
0.162653
0.1330332
0.1130752
0.06026665
-0.002399327
-0.05854714
-0.1244586
-0.1641507
-0.1863178
-0.2003529
-0.1791663
-0.1538078
-0.1378279
-0.08943705
-0.005554249
0.06846837
0.1169496
0.1442408
0.1395815
0.09926897
0.02793648
-0.0547417
-0.1191036
-0.1415957
-0.1345305
-0.1194289
-0.1070802
-0.106374
-0.07969449
-0.025336
0.03384375
0.09760793
0.1503991
0.2117837
0.2707406
0.2822348
0.244399
0.1850005
0.1287097
0.07048348
0.01723598
-0.02445038
-0.08912104
-0.1993147
-0.3234982
-0.4288951
-0.5119041
-0.5509599
-0.5204807
-0.4153106
-0.2487812
-0.08785277
0.03071267
0.1275832
0.193601
0.2377475
0.274465
0.316175
0.3647062
0.387305
0.4122457
0.4609735
0.5003767
0.5274767
0.548916
0.5404609
0.4837433
0.3857068
0.2168477
-0.002926043
-0.1701057
-0.3064583
-0.4510589
-0.5528249
-0.6387582
-0.7002767
-0.7301685
-0.7661936
-0.7587239
-0.7049899
-0.6189834
-0.5178283
-0.4253356
-0.2987346
-0.1399233
0.02346903
0.1730926
0.2999735
0.4084135
0.4964956
0.5624718
0.5903963
0.5766701
0.5150719
0.4331433
0.3724712
0.3335745
0.327779
0.3304721
0.3239464
0.3215426
0.3108991
0.2906979
0.2821749
0.3430297
0.4863098
0.6688936
0.8613558
1.042312
1.200697
1.262069
1.153105
0.8785382
0.4496164
-0.2561493
-1.44708
-3.046179
-4.79717
-6.472947
-7.67467
-7.787436
-6.328822
-3.410703
0.4557762
4.408528
7.346652
8.572339
7.910759
5.831557
3.188704
0.9379556
-0.4453289
-0.9237467
-0.4274987
0.1638846
0.1177178
-0.443768
-1.30331
-2.052075
-2.209172
-1.237468
0.4241592
1.805818
2.61428
2.687061
1.793806
0.002891963
-2.001029
-3.4889
-4.162394
-3.861209
-2.670584
-0.951408
1.003478
2.830366
3.953691
4.071765
3.275144
1.895357
0.4480619
-0.7556817
-1.700822
-2.403534
-2.858292
-3.079739
-3.104009
-2.95611
-2.624208
-2.071448
-1.303992
-0.3326387
0.7613602
1.729362
2.43638
2.883891
3.026458
2.869083
2.493744
1.991034
1.424938
0.8519018
0.3347412
-0.06729893
-0.3123044
-0.4676522
-0.6037329
-0.7050831
-0.8083013
-0.9381766
-1.072693
-1.184471
-1.200772
-1.088372
-0.8952705
-0.6478558
-0.3378777
-0.03997074
0.1773176
0.3544497
0.5078807
0.6237484
0.697927
0.7144785
0.6609343
0.5497456
0.3991694
0.2049272
0.02666886
-0.06838086
-0.1188716
-0.1827784
-0.2472632
-0.2857035
-0.3206342
-0.3247318
-0.2800032
-0.2539901
-0.2748152
-0.3126472
-0.3082947
-0.22361
-0.09476684
0.02039464
0.09799609
0.1491979
0.1846734
0.1923328
0.168868
0.1638752
0.1952181
0.213676
0.214105
0.1910238
0.1240294
0.04118952
-0.01629167
-0.005382823
0.0849463
0.1759694
0.187928
0.1410848
0.07908554
0.01656556
-0.0642186
-0.1498293
-0.1791308
-0.186698
-0.2283965
-0.2498371
-0.197636
-0.1059717
-0.004027974
0.07942484
0.05404361
-0.07317115
-0.1746771
-0.1828686
-0.1049024
0.01671262
0.1124896
0.1577073
0.1874976
0.1991304
0.1656248
0.1329757
0.1263653
0.09627542
0.03725124
-0.03445756
-0.1130625
-0.1598402
-0.161696
-0.1238901
-0.04864608
0.02358159
0.08003172
0.1345932
0.1522404
0.1253295
0.08106958
0.0203071
-0.02905584
-0.0496258
-0.05328559
-0.03994046
-0.02743085
-0.0176161
-0.004198671
-0.01413241
-0.04698557
-0.07823312
-0.118368
-0.157603
-0.1269271
-0.04492911
-0.0438159
-0.1279801
-0.1643995
-0.1172639
-0.04674315
0.008189213
0.02981814
0.07811434
0.1867452
0.2401443
0.211249
0.1859878
0.1779494
0.1531217
0.1123285
0.06889072
0.001100224
-0.06918667
-0.1083104
-0.1234247
-0.1016206
-0.08180775
-0.09341681
-0.09178389
-0.07391611
-0.0552982
-0.05246272
-0.06448288
-0.04968616
-0.005515719
0.03813374
0.06888255
0.08685213
0.1056348
0.1298297
0.124108
0.08950748
0.08521222
0.1162761
0.1253228
0.0715491
-0.02493296
-0.1086741
-0.16166
-0.186445
-0.1770591
-0.1488399
-0.1134184
-0.07593273
-0.0310631
0.03969197
0.1087987
0.1263392
0.0672754
-0.004429989
-0.02346689
-0.04444508
-0.05922299
-0.03337643
-0.007084426
0.01394103
0.01631007
0.009314902
0.01181989
-0.001951805
-0.008342881
0.007605749
0.01677588
0.02371619
0.03627206
0.02930826
-0.0004453084
-0.0195372
-0.005811012
0.03299738
0.07330174
0.09184158
0.06687175
0.01203896
-0.04722538
-0.08507122
-0.08608598
-0.1082286
-0.150999
-0.1632801
-0.1570532
-0.1116374
-0.01001292
0.0957725
0.1525965
0.1793399
0.2160821
0.2417037
0.243977
0.2077561
0.1332116
0.06912772
0.02734189
0.004714801
-0.01841233
-0.04514874
-0.05410922
-0.06103631
-0.06640948
-0.06441495
-0.055838
-0.06324706
-0.1069422
-0.1343875
-0.07363591
0.02615465
0.0551546
0.03200809
-0.01896236
-0.05799548
-0.1334037
-0.2591957
-0.4520519
-0.8797995
-1.0187
-0.7861742
-0.7932573
-0.5477093
0.4258189
1.225848
0.9751391
0.5325633
0.8026707
1.571625
2.594706
2.964125
2.144654
1.064074
0.1795859
-0.7833903
-1.723485
-2.501265
-3.012339
-3.00447
-2.522419
-1.841269
-1.233421
-0.8985472
-0.8093383
-0.790321
-0.5436193
0.1415358
1.05719
1.895173
2.471813
2.633086
2.403606
1.961195
1.475364
1.016177
0.5765336
0.2575797
0.1654088
0.1778592
0.1306678
-0.01225905
-0.2929062
-0.6936691
-1.075591
-1.312521
-1.345329
-1.196281
-0.9301206
-0.6659319
-0.4612962
-0.2620227
-0.09763166
-0.01537803
-0.02931776
-0.1046846
-0.1377298
-0.101022
0.0007592672
0.147013
0.2434885
0.2443736
0.1755984
0.0649237
-0.03019266
-0.06492919
-0.03703727
0.03561018
0.1105142
0.1861489
0.2564647
0.282131
0.2733572
0.2670487
0.2664808
0.2468671
0.2179934
0.2025209
0.1908781
0.161426
0.09463007
0.02479493
0.01209174
0.02026748
-0.02503481
-0.1141399
-0.1814265
-0.1934298
-0.1761789
-0.1381247
-0.1010486
-0.1051775
-0.1372133
-0.1351516
-0.004188537
0.136379
0.07729585
-0.09017804
-0.2074891
-0.2324392
-0.1781552
-0.08043906
0.03095165
0.09247077
0.08735456
0.05362086
0.02728404
0.001219723
-0.02615036
0.02129619
0.07079817
0.0145593
-0.05139878
-0.07118854
-0.05288042
0.008376973
0.06663124
0.09494846
0.08514119
0.05289081
0.04979513
0.06633753
0.07452498
0.08055107
0.07024217
0.03924707
0.01347043
0.009113532
0.00563656
-0.0245253
-0.08265627
-0.1245731
-0.09680466
-0.04505774
-0.01765604
-0.0009814943
-0.0132159
-0.03519621
-0.04519869
-0.06174314
-0.05055229
-0.01574843
0.02247286
0.08900122
0.1673825
0.2083318
0.1640632
0.1018376
0.0879205
0.06201766
0.03220241
-0.0006012525
-0.05871845
-0.1048467
-0.1358365
-0.1432695
-0.1336304
-0.1377105
-0.1582164
-0.190473
-0.2148575
-0.2072632
-0.1831389
-0.1684661
-0.1467998
-0.123633
-0.1076493
-0.0406228
0.08603211
0.2158049
0.3174822
0.3710267
0.4020051
0.4220535
0.3922822
0.3277076
0.2597057
0.2010616
0.1457787
0.08129355
0.02197502
-0.02375883
-0.06984305
-0.1143106
-0.140873
-0.1693389
-0.2099412
-0.2568873
-0.3029427
-0.3304856
-0.3326272
-0.2799848
-0.199038
-0.1510954
-0.115742
-0.06290627
-0.00728575
0.03687431
0.08624626
0.1486291
0.2040082
0.2125662
0.1787217
0.1520223
0.12192
0.08932701
0.0752687
0.03184438
-0.03801657
-0.07730035
-0.1088219
-0.1301321
-0.114974
-0.1017812
-0.05713158
0.04571589
0.1195826
0.1339956
0.1181747
0.07874391
0.03599217
-0.01807838
-0.09045035
-0.1140766
-0.09181333
-0.05637008
0.02035552
0.08029202
0.1141088
0.1624034
0.1787584
0.1816932
0.1887424
0.1695578
0.1205443
0.0556648
0.003865252
-0.05112059
-0.126377
-0.1825983
-0.205037
-0.2236171
-0.2189139
-0.1772203
-0.1453353
-0.1281835
-0.1345049
-0.1588511
-0.1466759
-0.1075656
-0.05625544
0.02679856
0.1291968
0.2093035
0.2370638
0.2327813
0.2030917
0.1367496
0.0698158
0.01281934
-0.03699025
-0.05127874
-0.04766631
-0.03328147
0.01911722
0.06995259
0.07086492
0.03714791
0.0134026
0.0279089
0.0402169
0.02566422
0.03221415
0.07119572
0.1033156
0.0714613
-0.01669232
-0.0940344
-0.1570313
-0.2260135
-0.2937154
-0.3150354
-0.2722381
-0.2061495
-0.1201494
-0.01310183
0.07685994
0.1327668
0.157519
0.1570628
0.1869321
0.2321128
0.2110759
0.16193
0.06310061
-0.05548911
0.04271499
0.2810712
0.3478682
0.2281941
0.06654689
-0.06457797
-0.1661574
-0.2824144
-0.396776
-0.4455852
-0.411658
-0.317868
-0.1914702
-0.05563234
0.07005692
0.1812199
0.2618152
0.2986243
0.3090499
0.2884535
0.2301048
0.1691899
0.1160814
0.03659302
-0.05933317
-0.1388141
-0.1628988
-0.1127535
-0.09192473
-0.1422055
-0.181456
-0.2026492
-0.212869
-0.184086
-0.1179979
-0.04222899
0.004796167
0.04354957
0.09697228
0.1283751
0.1472388
0.1369033
0.08206968
0.04331277
0.02281528
0.01246576
0.006035939
0.02875667
0.1223411
0.2121575
0.2464553
0.2372949
0.2066963
0.1479585
0.03614216
-0.07373916
-0.1485053
-0.1932442
-0.2247091
-0.2698948
-0.2901079
-0.2480831
-0.1683034
-0.09072106
-0.0167467
0.05565137
0.09135474
0.07984979
0.06654085
0.05639569
0.02772724
0.01886504
0.04109315
0.08899081
0.1126215
0.04162231
-0.04375629
-0.0676838
-0.0569344
-0.03516617
-0.01846895
-0.01322788
-0.01056884
-0.01299191
-0.03689797
-0.05580325
-0.0580305
-0.05578889
-0.02268886
0.02168095
0.06121242
0.100989
0.1192437
0.1181973
0.1107159
0.1006735
0.08378942
0.0733539
0.06278609
0.01845633
-0.04131958
-0.07414022
-0.08474016
-0.09672271
-0.1015804
-0.09598012
-0.06721821
-0.01334597
0.01048151
-0.01147524
-0.03982711
-0.06485578
-0.09252063
-0.08455567
-0.03127591
0.02223057
0.05814922
0.07321786
0.07615449
0.09071896
0.1329632
0.1833604
0.1877584
0.1448647
0.1011076
0.06424636
0.02571026
-0.01070328
-0.05756723
-0.1035908
-0.1117602
-0.09344842
-0.07562945
-0.06938718
-0.08482858
-0.1152336
-0.1606561
-0.2034077
-0.2275463
-0.2165331
-0.1474151
-0.06808994
-0.009640092
0.0199325
0.05168138
0.1284632
0.2006047
0.2561247
0.3006425
0.2894549
0.2330046
0.2201071
0.2462641
0.218558
0.1442037
0.07166385
0.01347638
-0.06672407
-0.2058862
-0.3294424
-0.393142
-0.4674636
-0.5425372
-0.5411937
-0.4526819
-0.3034549
-0.12935
-0.02465124
0.005013997
0.06486444
0.1078111
0.1104673
0.1588975
0.2374088
0.2473052
0.1761608
0.2013262
0.3459064
0.4174426
0.4096808
0.4224228
0.4610898
0.5241513
0.5680513
0.5030041
0.3829672
0.3057786
0.2141183
0.06307559
-0.09138802
-0.2179983
-0.3178547
-0.4162869
-0.5440228
-0.6911318
-0.8284272
-0.8834026
-0.8561921
-0.8579134
-0.8250582
-0.7186652
-0.6588705
-0.5765283
-0.3927535
-0.1666952
0.07431008
0.2994827
0.4803855
0.6018304
0.624046
0.5766074
0.5442696
0.5293033
0.5216522
0.5481155
0.5867311
0.5985277
0.5651519
0.5706012
0.6124861
0.6114639
0.633998
0.5312742
0.4219168
0.4930698
0.5082503
0.6345138
0.9324351
1.223997
1.389505
1.179289
0.6901272
0.05918501
-0.8786409
-2.192878
-3.746483
-5.507504
-7.322252
-8.466493
-8.106483
-5.911142
-2.20497
2.147684
5.994222
8.381628
8.999345
7.993728
5.714559
2.760673
0.3244671
-0.8886301
-1.395097
-0.8928419
0.3023064
0.716635
0.6829291
0.5337276
-0.2808512
-1.494018
-2.380639
-2.526495
-2.034976
-1.19137
-0.3535252
0.2500647
0.5098863
0.1484631
-0.6662015
-1.10938
-0.753606
0.1560504
1.281043
2.250689
2.843527
3.063294
2.815452
2.046539
0.857407
-0.5878077
-2.019841
-3.18031
-3.899048
-4.141344
-3.942722
-3.364046
-2.648988
-1.945995
-1.208278
-0.4390065
0.4057312
1.26338
1.901382
2.325413
2.665947
2.850988
2.83789
2.683997
2.393465
1.972569
1.434577
0.831454
0.2410112
-0.2850455
-0.6961132
-0.9683184
-1.141866
-1.280056
-1.339608
-1.297324
-1.249946
-1.185356
-1.020667
-0.7405675
-0.3658519
0.009437443
0.2833984
0.4287209
0.4487663
0.4078806
0.3904375
0.3994216
0.4169698
0.4520459
0.4971414
0.504851
0.4184761
0.2723759
0.1404805
-0.02706592
-0.2604772
-0.4633309
-0.5702077
-0.5901486
-0.5687997
-0.5221699
-0.4497477
-0.3618844
-0.2321823
-0.06765187
0.07963517
0.1659103
0.1833171
0.1482194
0.09518177
0.0887445
0.1353641
0.2003722
0.2401461
0.2092715
0.1221092
0.02081875
-0.04875869
-0.06255139
-0.04411773
-0.00157027
0.0671088
0.1216536
0.1524953
0.1592056
0.1309192
0.119906
0.1382934
0.1527278
0.1485475
0.1339528
0.1234334
0.07745449
-0.007135158
-0.09739412
-0.1795468
-0.2182364
-0.2160181
-0.2082019
-0.1844896
-0.1351325
-0.08458912
-0.02094875
0.04224161
0.05308643
0.03835768
0.02345514
0.009342144
-0.007757789
-0.06631812
-0.1471497
-0.1820842
-0.1514971
-0.06978177
0.05270373
0.182641
0.2577039
0.1933799
0.08051532
0.04717084
-0.03894372
-0.1027729
0.02250759
0.1565346
0.1903662
0.1446129
0.04278801
-0.01519453
-0.06806917
-0.1596739
-0.2084712
-0.2309624
-0.2392044
-0.2115109
-0.1496862
-0.05457425
-0.007161483
-0.008655555
0.02425192
0.07044975
0.0843699
0.0656854
0.05578433
0.06493215
0.06228177
0.05666634
0.04001521
0.02388626
0.05031522
0.1184731
0.1746034
0.1624325
0.1296501
0.09854529
0.02740974
-0.04141594
-0.07408308
-0.0774103
-0.0436954
-0.008841694
0.01617391
0.04278379
0.01002752
-0.07617814
-0.1229828
-0.09728505
-0.07695945
-0.1201153
-0.1160999
-0.0227919
0.01001789
-0.01613007
0.04832931
0.1388354
0.1571226
0.1762962
0.1876762
0.1647782
0.133442
0.04990763
-0.07281075
-0.1785534
-0.2439469
-0.2751503
-0.2770383
-0.224869
-0.1714548
-0.1348699
-0.05078521
0.0471978
0.0889902
0.129765
0.1887328
0.159697
0.1153003
0.1791924
0.231218
0.1763582
0.07588852
-0.05436131
-0.1635833
-0.1665902
-0.1520261
-0.1740696
-0.1715884
-0.134318
-0.09079726
-0.08171295
-0.04108692
0.04815119
0.07933763
0.113967
0.1969101
0.1808602
0.08098222
0.027963
-0.01079918
-0.01212872
0.03322323
0.03732938
0.05645725
0.05597791
-0.03069648
-0.006341774
0.1605573
0.2131859
0.1012482
-0.01893429
-0.08927247
-0.1287815
-0.1334844
-0.09378294
-0.01547968
0.03174683
0.03273804
0.02841101
0.01950748
0.05377997
0.0383558
-0.007788109
0.08153933
0.121648
0.04799308
-0.04603653
-0.1727084
-0.2005553
-0.1837079
-0.2399805
-0.2675548
-0.2466063
-0.1931375
-0.1299139
-0.09052172
-0.01237987
0.1077681
0.1902055
0.2317583
0.0358469
-0.5530319
-0.9491225
-0.9309958
-0.8021029
-0.02625874
1.352011
1.686484
0.6847001
0.1325285
0.5565058
1.426915
2.391573
2.480758
1.633735
0.7573158
-0.1089407
-1.134406
-2.038924
-2.588896
-2.694865
-2.358074
-1.684202
-1.008509
-0.6483528
-0.5517699
-0.6282067
-0.8083586
-0.8487949
-0.556578
0.1127821
0.9366379
1.454756
1.627825
1.773481
1.80308
1.568755
1.318704
1.157059
0.9710812
0.7819026
0.6521652
0.5473805
0.3474319
-0.01495587
-0.4025208
-0.7052492
-0.9798138
-1.167655
-1.198547
-1.112533
-0.9158243
-0.6700283
-0.4575314
-0.2748507
-0.1231179
-0.03042524
0.01776808
0.03687355
0.01790889
-0.02803554
-0.07493037
-0.1022186
-0.1177587
-0.1371527
-0.1571787
-0.1520257
-0.1148967
-0.04579997
0.05487465
0.1332361
0.1726505
0.1991695
0.2295537
0.266858
0.3085332
0.3506849
0.343262
0.2859808
0.2397378
0.201809
0.1774199
0.2114044
0.245871
0.2487196
0.2506624
0.2057971
0.1480836
0.1193164
0.06702819
-0.02171539
-0.1355893
-0.2449379
-0.3415123
-0.4120705
-0.4036228
-0.364669
-0.3463806
-0.3198245
-0.261829
-0.1502429
-0.01989158
0.04600177
0.02695716
-0.004521784
-0.0309538
-0.1010202
-0.1292131
-0.05403155
0.03742841
0.1358498
0.21518
0.1836303
0.1100554
0.06303471
0.02340641
0.04207341
0.1161165
0.1622384
0.1637503
0.1226781
0.03148562
-0.04231784
-0.03817998
-0.007480471
0.01251769
0.03545811
0.04652937
0.05590709
0.05393488
0.03394934
0.04590555
0.03790357
0.01016821
0.001987141
-0.05227438
-0.09344133
-0.1199263
-0.1745113
-0.1914871
-0.1948414
-0.165363
-0.1093567
-0.07989112
-0.03060058
0.04146411
0.1271431
0.2122843
0.240396
0.2035127
0.1486352
0.09614051
0.06374834
0.07335676
0.06511045
0.02861959
0.02337359
0.04838897
0.05264321
-0.01631426
-0.1286978
-0.2395878
-0.3280916
-0.3678585
-0.3808398
-0.3688746
-0.304004
-0.1843976
-0.06081618
0.001706645
0.03729475
0.1162906
0.1941631
0.2085045
0.2227906
0.2662884
0.2846325
0.2922038
0.3276482
0.3705115
0.3459706
0.2526378
0.1819095
0.0964893
-0.01930132
-0.07710013
-0.0968175
-0.1076225
-0.1399451
-0.1875243
-0.2023498
-0.2295383
-0.2360595
-0.1937067
-0.2083478
-0.2814641
-0.3103319
-0.2561437
-0.1509325
-0.04773825
0.03973031
0.1042079
0.09686409
0.05953886
0.1013702
0.1820782
0.1980353
0.1688756
0.1243316
0.09497114
0.08817916
0.04333062
0.01745694
0.0148262
-0.03164634
-0.07470181
-0.0821794
-0.07555932
-0.04627263
0.0606431
0.1734654
0.2071888
0.1930131
0.1403042
0.08097649
0.01881493
-0.0287855
-0.06797343
-0.1568063
-0.2181392
-0.2306342
-0.2125165
-0.1250951
-0.03963605
0.0011038
0.03954071
0.09146243
0.1335427
0.1453179
0.1512986
0.1555562
0.1359837
0.0869329
-0.04097368
-0.2154984
-0.2583278
-0.2196003
-0.2413218
-0.2159905
-0.1446167
-0.1142336
-0.07893855
-0.05636343
-0.03326422
0.03934458
0.1172304
0.1887392
0.2868105
0.3732075
0.3664141
0.3087936
0.2371866
0.1130312
-0.01758417
-0.09416178
-0.1015618
-0.08176582
-0.09784321
-0.1451074
-0.171116
-0.1602839
-0.107697
-0.0242306
-0.008312731
-0.04586539
-0.03413563
-0.004261559
-0.009938706
-0.03493404
-0.0647213
-0.1293333
-0.1850693
-0.1573137
-0.06727894
0.02848564
0.08330048
0.1113026
0.1136302
0.1238697
0.1631741
0.1473976
0.1296158
0.1730237
0.1855943
0.140465
0.09103205
0.01151155
-0.07487252
-0.1145374
-0.1411353
-0.1007809
-0.03827608
-0.05491925
-0.08783206
-0.1409992
-0.2146667
-0.2398214
-0.204642
-0.1178673
-0.03087012
0.04486444
0.1058382
0.05898174
-0.02456488
-0.03103589
0.001764576
0.03670253
0.06093226
0.1410605
0.2422713
0.2502118
0.2499405
0.2646194
0.2427043
0.1882747
0.05716134
-0.04693023
-0.06686441
-0.1024408
-0.1405136
-0.1976237
-0.2368446
-0.2044486
-0.1833825
-0.1691098
-0.1401077
-0.08889592
0.007455505
0.05657347
0.04764565
0.06331058
0.04896646
0.03164103
0.0529164
-0.0142056
-0.07156781
-0.003910528
0.05774965
0.08815174
0.0968506
0.0744065
0.06715519
0.09282771
0.1267182
0.1384793
0.1376567
0.09789947
-0.00907483
-0.1236156
-0.1751424
-0.2044335
-0.2267452
-0.1946775
-0.1313599
-0.03506493
0.01041479
-0.0120502
0.002459304
-0.01148091
-0.04342048
-0.02264744
0.02216955
0.05645194
0.03659125
0.02740559
0.08784897
0.1240234
0.1237876
0.1456814
0.1107539
-0.02283667
-0.1343627
-0.1437833
-0.09642627
-0.03415588
0.008727274
-0.008829937
-0.03383452
-0.01647072
0.02199478
0.03898832
0.04416106
0.09507071
0.1515366
0.1644197
0.1278646
0.05987029
0.04608981
0.0999034
0.1082484
0.009058983
-0.1103499
-0.1570374
-0.1419874
-0.1502319
-0.1709086
-0.1252315
-0.04734788
0.04395736
0.1285382
0.1746349
0.1477468
0.05421598
0.003353009
-0.07216485
-0.1483736
-0.09190372
-0.04632014
-0.04864458
-0.0449142
-0.08313422
-0.1090695
-0.101212
-0.1176484
-0.1556047
-0.1745263
-0.1643109
-0.1159552
-0.0605677
-0.002119609
0.09862779
0.119838
0.1055832
0.1784546
0.2430875
0.2882418
0.2790117
0.2290517
0.1977945
0.1097169
-0.02162716
-0.0876298
-0.006679487
0.1056246
0.05867939
-0.0825968
-0.07864325
0.04788641
0.03781253
-0.07306587
-0.09002908
-0.03360806
-0.02329414
-0.07228519
-0.1038411
-0.1249974
-0.2199952
-0.325871
-0.350817
-0.3387339
-0.2372217
-0.02091078
0.1819054
0.2687157
0.2359449
0.2422557
0.314052
0.2681866
0.1687438
0.1200483
0.05393143
0.02487539
0.01524586
-0.02323033
0.01372628
0.08265157
0.1297383
0.2003856
0.1808039
0.04467264
-0.09161537
-0.2310121
-0.3036638
-0.2907321
-0.2977024
-0.3091412
-0.3303745
-0.3413739
-0.3089118
-0.3153576
-0.3397876
-0.2874138
-0.1524263
0.006502868
0.09480631
0.1438338
0.2275145
0.2560653
0.2487091
0.3010351
0.360827
0.400168
0.4097616
0.3955435
0.3963035
0.4157573
0.4799528
0.5898434
0.7122459
0.8796301
1.110848
1.324522
1.481348
1.511654
1.42855
1.323575
0.9961568
0.255374
-1.154927
-3.42505
-5.965407
-7.988281
-9.101741
-8.759163
-6.430586
-2.568728
1.658765
5.202312
7.420149
8.060238
7.138074
5.051566
2.545626
0.5746533
-0.09166113
0.5194428
1.592647
2.446801
3.021784
2.934629
2.180798
1.439859
0.3646671
-1.324439
-3.316646
-5.649536
-7.765546
-8.714283
-8.177195
-6.308546
-3.404933
-0.01740217
3.001889
4.975388
5.880718
6.088439
5.826088
5.218577
4.356657
3.292209
2.087446
0.7767639
-0.4656896
-1.47239
-2.222892
-2.664001
-2.861223
-2.970395
-3.042055
-3.016988
-2.806576
-2.499181
-2.216962
-1.864041
-1.333698
-0.6469259
0.1747701
1.035677
1.758995
2.313644
2.686962
2.790318
2.65005
2.295433
1.711209
1.024353
0.3829999
-0.1567598
-0.5111802
-0.6915576
-0.6981314
-0.6700222
-0.7208837
-0.5412673
-0.268209
0.007960491
0.3676035
0.4004307
0.1766847
-0.09334892
-0.3649957
-0.4292803
-0.3144457
-0.1968005
-0.1957187
-0.268059
-0.3371422
-0.3950433
-0.3770539
-0.2912987
-0.2166311
-0.1634659
-0.1037311
-0.02431222
0.05171882
0.1083788
0.1433828
0.162161
0.2029743
0.2338757
0.2116328
0.185226
0.1507439
0.1101846
0.0924309
0.04955804
-0.00168621
-0.01956561
-0.007754997
0.01591458
0.00527738
-0.02431078
-0.07111662
-0.1428355
-0.1638313
-0.1443269
-0.1433338
-0.1226449
-0.05187297
0.02142407
0.05366613
0.04378922
-0.00603405
-0.06501359
-0.08549366
-0.04619278
0.0468809
0.1839214
0.3322891
0.3956451
0.348609
0.254846
0.1675694
0.1066147
0.03809693
-0.04136652
-0.1078557
-0.1508711
-0.1447677
-0.08945672
-0.02827481
0.0004916731
0.004496795
-0.00741283
-0.02456969
-0.04911541
-0.1020345
-0.1423429
-0.1635773
-0.1797435
-0.1573475
-0.1032477
-0.04782344
-0.009384761
0.04065003
0.105565
0.1441675
0.1721371
0.1923344
0.1737738
0.1203389
0.06362571
0.008031991
-0.05923316
-0.1154081
-0.1566478
-0.2122624
-0.2735704
-0.2928393
-0.2458864
-0.1761205
-0.1002795
-0.004069087
0.08418678
0.1536332
0.1882743
0.1834133
0.1508523
0.1032152
0.1025932
0.1468578
0.1630268
0.1271675
0.05951298
-0.007623249
-0.05174374
-0.08027811
-0.09667797
-0.1049656
-0.1157832
-0.09981739
-0.05787545
-0.01604726
0.04085274
0.103489
0.1387339
0.1370669
0.09285092
0.04196269
0.01229269
-0.06023069
-0.1539641
-0.1658505
-0.08939196
0.01318659
0.08115686
0.1099442
0.105057
0.05707264
0.004709736
-0.0194071
-0.02938922
-0.02782101
-0.003688621
0.01631633
0.02030728
0.009440501
-0.03709665
-0.07546552
-0.08334286
-0.08572228
-0.05693407
0.0008365075
0.03049587
-0.001819355
-0.06615713
-0.1171054
-0.1243745
-0.08109643
-0.03052857
0.001467563
0.05974223
0.1357001
0.1468705
0.1181262
0.1141613
0.1322296
0.142855
0.1166123
0.07326515
0.02113923
-0.03723079
-0.0704539
-0.07442021
-0.05179743
-0.003642412
0.03698449
0.05213923
0.05640979
0.01901751
-0.05365686
-0.08444589
-0.0675552
-0.0796833
-0.1453267
-0.1920251
-0.2239606
-0.2649767
-0.2489083
-0.2051853
-0.1610487
-0.06508092
0.04474337
0.1235104
0.183328
0.249957
0.3060989
0.2946716
0.2650075
0.2620524
0.2167699
0.134726
0.08645689
0.06907494
0.05207833
0.0008096542
-0.09746304
-0.1627943
-0.1575967
-0.1422309
-0.1272252
-0.1003435
-0.07169579
-0.03155153
0.01716895
0.07969406
0.1221885
0.01595558
-0.120743
-0.06719696
-0.008696187
0.07010338
0.1447878
-0.1987153
-0.6049861
-0.7302677
-0.7338333
-0.2288413
0.7035787
0.7690776
-0.2233705
-0.6892475
-0.1766491
0.7069175
1.560301
1.732467
1.23008
0.5783009
-0.1021492
-0.7293478
-1.144356
-1.219058
-0.9337636
-0.5300718
-0.2040892
0.0231365
0.06600778
-0.1272165
-0.4731936
-0.7512236
-0.7259235
-0.4150014
0.0004149533
0.4214565
0.7039547
0.7387692
0.6236696
0.3640591
0.1233889
0.1037243
0.1672001
0.29811
0.4700893
0.6046818
0.6930088
0.5753258
0.2722119
0.02187749
-0.1241825
-0.2370181
-0.2916843
-0.2644526
-0.2075507
-0.2079699
-0.3049795
-0.3716374
-0.3501872
-0.3689663
-0.3862242
-0.3057699
-0.1991161
-0.1050911
-0.05216503
-0.03904048
-0.02712616
-0.05554164
-0.103027
-0.1386348
-0.1941012
-0.2285372
-0.2074325
-0.1614067
-0.1030915
-0.04441089
0.008294839
0.06760362
0.05730122
0.05084559
0.3065617
0.6216612
0.6297265
0.4904259
0.4310119
0.4111782
0.3816343
0.3389698
0.2895205
0.2322514
0.1301724
-0.0008832839
-0.09965135
-0.1504295
-0.1610938
-0.1758521
-0.2137657
-0.2560743
-0.3064866
-0.3196191
-0.2759562
-0.2218109
-0.1954635
-0.2204404
-0.2619044
-0.2405271
-0.1510635
-0.06750661
-0.00337537
0.03697306
0.05280912
0.09682341
0.1247054
0.09983236
0.07399187
0.04361273
0.02227461
0.05146405
0.09232891
0.1110601
0.09993625
0.05397934
0.01643961
-0.009373321
-0.03636152
-0.04308785
-0.02887747
0.004496156
0.03052231
0.02567357
0.004937499
-0.005290863
0.009044839
0.03539883
0.068129
0.07260516
0.04473478
0.04553873
0.06839439
0.0984155
0.1288927
0.1177664
0.05312025
-0.0463106
-0.138438
-0.2009457
-0.2032146
-0.1347243
-0.05979681
0.01811918
0.1186786
0.201016
0.2648913
0.3090394
0.2891736
0.241567
0.1902266
0.09787552
-0.0262737
-0.1665705
-0.2979397
-0.4051996
-0.4794087
-0.4998829
-0.4999119
-0.4823531
-0.4293005
-0.3668458
-0.2579777
-0.09480067
0.05663623
0.1813968
0.2750179
0.330978
0.3539482
0.3558461
0.3557619
0.369315
0.3719103
0.3155557
0.228209
0.1595083
0.1382931
0.1370467
0.09909599
0.04157062
-0.02379255
-0.07603144
-0.07345032
-0.04964837
-0.06809554
-0.1173097
-0.1362815
-0.1334424
-0.1289928
-0.1280935
-0.1590725
-0.1829355
-0.1794542
-0.157959
-0.1170886
-0.1058099
-0.1050038
-0.08672685
-0.06458504
-0.04897484
-0.04802353
-0.02001019
0.0293064
0.08243921
0.149247
0.1819357
0.1426746
0.08618089
0.05937745
0.04502982
0.04116607
0.05506072
0.08109909
0.06742112
0.02864299
0.03342265
0.04741235
0.06337259
0.0834669
0.08179996
0.07252513
0.05199639
0.01619372
-0.03291779
-0.08756468
-0.134347
-0.1762464
-0.1964366
-0.170641
-0.1049331
-0.02650369
0.04480697
0.1017279
0.1459081
0.159289
0.1262366
0.07041807
0.007990289
-0.04811186
-0.1548848
-0.1794284
0.02935681
0.1602785
0.1572898
0.1325109
-0.03415751
-0.206277
-0.2879076
-0.3050921
-0.2285891
-0.1353362
-0.0842715
-0.04422212
0.05048396
0.1850513
0.2567683
0.2421738
0.1996831
0.1605227
0.1213657
0.08268923
0.01957506
-0.06085891
-0.1048974
-0.1279737
-0.1526255
-0.1699111
-0.1698528
-0.1290666
-0.07788456
-0.04011029
0.03335337
0.1138559
0.1416139
0.1508984
0.1497965
0.1309086
0.09675805
0.07405822
0.1372012
0.2251872
0.1841981
0.002068657
-0.1290977
-0.1134999
-0.117519
-0.2164805
-0.3132742
-0.3325165
-0.2696469
-0.1453302
0.02488066
0.190744
0.2844485
0.2899827
0.2498335
0.1959713
0.1252481
0.05119688
0.006091656
-0.02270825
-0.07547542
-0.1377102
-0.1587047
-0.1428822
-0.1253424
-0.09325537
-0.03065134
0.02406815
0.04885441
0.05383627
0.03248872
0.0171586
0.03081936
0.03297546
0.03015305
0.04648542
0.04766563
0.02530225
-0.01721592
-0.07419016
-0.1000683
-0.1090582
-0.1190316
-0.09711467
-0.04447746
-0.01271502
-0.02042677
-0.01632875
-0.01798042
-0.03839025
-0.02824136
-0.003418238
-0.003225909
-0.01544128
0.001066955
0.04895816
0.1273433
0.1857342
0.1580584
0.1075771
0.06528582
0.01918269
-0.006871452
-0.02682807
-0.0221656
0.01810691
0.05705928
0.09914242
0.1391709
0.136171
0.08904142
0.05367
0.01906496
-0.04002418
-0.06530086
-0.1044227
-0.184058
-0.2039043
-0.1799593
-0.1615129
-0.114353
-0.04721368
-0.008142897
-0.01589273
-0.06515666
-0.1068538
-0.1150725
-0.09978679
-0.04287555
0.0325616
0.1037458
0.1692296
0.1909516
0.1980012
0.2406365
0.2281266
0.118571
0.02366402
-0.04420298
-0.1135414
-0.1518728
-0.1799652
-0.1944233
-0.1615882
-0.08214386
0.01504476
0.08060241
0.1096403
0.1151777
0.1165701
0.1326695
0.1349918
0.1199936
0.1035415
0.0703106
0.03300867
0.0127577
-0.01463688
-0.04813451
-0.06793997
-0.08030783
-0.0903006
-0.09587873
-0.07659369
-0.03105279
0.002800253
0.01463829
0.01739626
-0.01310654
-0.06984907
-0.1282417
-0.1886057
-0.1938941
-0.1407817
-0.07947624
-0.01088777
0.03908389
0.06133445
0.08026213
0.1020167
0.1179623
0.1042794
0.06117425
0.02504889
0.03261926
0.0620776
0.06200069
0.01972835
-0.05486709
-0.1173637
-0.1486766
-0.1767321
-0.1958857
-0.2032689
-0.1929416
-0.1231166
0.001802628
0.128992
0.230925
0.306402
0.3734447
0.421773
0.4180049
0.3778187
0.3269547
0.2744112
0.2097056
0.1190856
-0.00473307
-0.1483155
-0.2735972
-0.3747895
-0.4192194
-0.3756542
-0.3114567
-0.2811005
-0.2456678
-0.1942886
-0.1578667
-0.1273863
-0.09196602
-0.05543732
-0.03385699
-0.01955969
0.00545283
0.0305787
0.03141087
-0.004442529
-0.03951129
-0.07880816
-0.1266585
-0.1443432
-0.1468652
-0.1199862
-0.04939204
0.02362419
0.09129974
0.1665039
0.250354
0.3272023
0.382843
0.4298764
0.4536004
0.4506681
0.4723754
0.5134579
0.5725287
0.6924313
0.850861
1.009034
1.146347
1.248566
1.293843
1.223358
0.9518027
0.4899019
-0.230643
-1.561539
-3.380826
-4.961664
-6.024882
-6.593502
-6.208043
-4.542151
-1.952888
0.9265275
3.321848
4.65669
4.862905
4.113203
2.77435
1.480613
0.8253655
1.081197
2.043428
3.071754
3.6887
3.589934
2.843611
1.881375
0.7648132
-0.3459082
-1.625651
-3.460238
-5.226033
-6.303835
-6.511071
-5.634997
-3.848554
-1.641041
0.5600064
2.403834
3.672155
4.377282
4.577824
4.293642
3.641824
2.829405
2.001563
1.208759
0.5028257
-0.1153486
-0.7007784
-1.294779
-1.94735
-2.623087
-3.209991
-3.618865
-3.715764
-3.429089
-2.859349
-2.128871
-1.322919
-0.4988122
0.3060565
1.053621
1.711288
2.230646
2.582312
2.725491
2.637465
2.376986
1.903396
1.182745
0.5414711
0.2348873
-0.1098504
-0.5137872
-0.710456
-1.000578
-0.8890387
-0.1653771
0.1290417
0.08058506
0.1695166
0.1517467
0.03866415
-0.01246043
-0.03038218
-0.1299022
-0.348209
-0.5971735
-0.7407107
-0.7299098
-0.618837
-0.4573234
-0.2865939
-0.1232438
0.01544376
0.1010006
0.1816881
0.2894232
0.3429324
0.3001601
0.2073538
0.1368287
0.1203348
0.08553601
-0.004749267
-0.1048372
-0.1873728
-0.2175825
-0.1833518
-0.1275513
-0.1121366
-0.1358953
-0.1261083
-0.07442901
0.01779197
0.1233804
0.1562984
0.1311742
0.09807279
0.06658652
0.04627086
0.06517344
0.1392865
0.195613
0.176987
0.1297718
0.1075163
0.09927282
0.0635055
0.008674922
-0.02706814
-0.03880055
-0.02181834
0.01951068
0.05687714
0.09197729
0.09531838
0.04695565
-0.01406135
-0.09091264
-0.1672786
-0.2113692
-0.2072535
-0.1419645
-0.05326569
0.007421732
0.006377476
-0.02613572
-0.0421966
-0.01766171
0.0489044
0.09728215
0.08740421
0.02569306
-0.04473366
-0.09016478
-0.1084243
-0.09303627
-0.05886406
-0.007198002
0.04518902
0.07413466
0.09746317
0.1175995
0.1288407
0.1075181
0.0489268
0.002329398
-0.03744318
-0.07496898
-0.06070074
-0.01650516
0.006301326
0.02234345
-0.0007130445
-0.07903519
-0.1164555
-0.1011766
-0.07763326
-0.04833313
-0.01752515
0.03286971
0.09121624
0.1225759
0.1460918
0.157929
0.1294551
0.09520453
0.08730319
0.08770306
0.04180551
-0.04543403
-0.09485901
-0.0997572
-0.07833084
-0.04686387
-0.06731848
-0.141916
-0.2380872
-0.3194382
-0.3003071
-0.2053843
-0.1264613
-0.07048834
-0.03825749
-0.01662258
0.03087797
0.08824003
0.109062
0.1292363
0.183554
0.211821
0.2129409
0.2034632
0.1654306
0.1114451
0.03385713
-0.01898072
0.005906906
0.05561768
0.1196949
0.1939081
0.2153678
0.1864077
0.1161479
0.01459197
-0.0495286
-0.08720667
-0.134537
-0.1592363
-0.1654337
-0.1661553
-0.150331
-0.1188591
-0.0774973
-0.05034585
-0.05831252
-0.07914457
-0.07236653
-0.04232616
-0.02823688
-0.0367848
-0.04484799
-0.03575978
-0.01980629
-0.00303078
0.02916867
0.07048254
0.1073466
0.1289227
0.1328188
0.1048495
0.03422118
-0.02790708
-0.05867243
-0.0616477
-0.0493802
-0.04928609
-0.02706573
-0.002793019
-0.01240116
-0.01722046
-0.01356928
0.0006135792
0.01709059
0.01625448
0.01667123
0.005836593
-0.02696264
-0.05964565
-0.06751747
-0.03700636
0.003252922
0.04632269
0.09016127
0.1109625
0.1232967
0.1177178
0.08819119
0.06508173
0.0346514
-0.00698195
-0.03543874
-0.03983987
-0.0214534
-0.02857851
-0.06665085
-0.07768141
-0.04485051
0.0130714
0.06075077
0.08142972
0.04395824
-0.03389848
-0.05509989
-0.06293789
-0.08749106
-0.08760152
-0.09185845
0.06140725
0.1136183
-0.3912417
-0.8281048
-0.838378
-0.6112345
0.3541253
1.313176
0.7229146
-0.4236066
-0.5422982
0.04701291
0.831128
1.391726
1.262239
0.7795984
0.3416548
-0.057839
-0.3929792
-0.5954923
-0.5628894
-0.3563192
-0.1989398
-0.09971878
-0.07459009
-0.2396982
-0.6126317
-1.097161
-1.455781
-1.5175
-1.248961
-0.7066255
-0.06922238
0.5219709
0.9507232
1.118007
1.145177
1.217914
1.24584
1.12868
1.00516
0.868971
0.6728264
0.4986463
0.3299257
0.1150626
-0.1716863
-0.5448157
-0.9479854
-1.18311
-1.225415
-0.9842802
-0.6378884
-0.679215
-0.3321109
0.3575846
0.2807589
0.05142464
-0.001765915
-0.1724178
-0.1614787
0.02308236
0.2961932
0.4638458
0.4123012
0.2968473
0.02339559
-0.2352858
-0.2823074
-0.349194
-0.4259659
-0.4552464
-0.4899207
-0.430823
-0.2201697
0.1204328
0.4555849
0.6614512
0.720323
0.6642597
0.5495769
0.4212459
0.3735463
0.3649251
0.3146084
0.1183643
-0.1850397
-0.2030146
-0.05119692
-0.03652811
-0.00639137
0.02255017
-0.06371891
-0.1835819
-0.2320645
-0.2270761
-0.2361076
-0.2474077
-0.2502652
-0.2605995
-0.2905135
-0.2883778
-0.2215153
-0.1427505
-0.06968886
0.008806727
0.1123518
0.2155424
0.2717505
0.3011403
0.2922509
0.2332626
0.1548832
0.07001567
-0.01514301
-0.09461205
-0.1634539
-0.2225606
-0.2522213
-0.2490758
-0.2269596
-0.1663688
-0.06759758
0.05592645
0.1770445
0.2659275
0.3317677
0.3441647
0.2818218
0.1991864
0.09898827
-0.02759062
-0.1131031
-0.1426755
-0.1611035
-0.1697807
-0.1699171
-0.1557132
-0.1065104
-0.04301421
0.03909809
0.1324481
0.1842075
0.2091721
0.216092
0.1773199
0.1402147
0.1193045
0.07654734
0.03322257
-0.01273308
-0.06736393
-0.1018749
-0.1296359
-0.1781185
-0.2540969
-0.3368087
-0.3974017
-0.4240783
-0.4227566
-0.3953725
-0.3203475
-0.1985492
-0.05983659
0.06051254
0.1331579
0.1649792
0.2005551
0.2583437
0.298318
0.3142293
0.3443218
0.3733968
0.373269
0.370286
0.3704562
0.3442425
0.3043521
0.2543696
0.1865272
0.1266587
0.07290604
0.03186669
-0.006345071
-0.05597548
-0.09267451
-0.1595171
-0.2667461
-0.364951
-0.4218571
-0.4153913
-0.3608286
-0.2770646
-0.2104701
-0.1866018
-0.2097322
-0.2577211
-0.2387894
-0.1706265
-0.1512947
-0.2115081
-0.2146183
-0.05037899
0.189487
0.3741566
0.30854
0.08800208
-0.216181
-0.4710273
-0.3936997
-0.3088063
0.2306928
1.029056
0.8374211
0.4401658
0.4251564
0.3026274
0.2241612
0.1920719
0.1273063
0.06225051
-0.005926924
-0.02755142
-0.00994133
0.01765262
0.04256567
0.06054487
0.04867693
0.01233151
-0.05180775
-0.1521307
-0.230069
-0.2626528
-0.269974
-0.2444296
-0.1820186
-0.1189567
-0.09763277
-0.1038743
-0.1109086
-0.1282243
-0.139291
-0.1259811
-0.1129492
-0.09802931
-0.07378319
-0.0527936
-0.02432488
0.01869572
0.06461349
0.09827945
0.1025751
0.07871164
0.06884922
0.1053739
0.1564737
0.1802653
0.16217
0.102382
0.03199776
-0.0002591219
0.004175942
0.007382125
0.01360029
0.04085907
0.07888049
0.112907
0.1293447
0.1145545
0.07294722
0.003936959
-0.09542661
-0.1759856
-0.1887432
-0.1607743
-0.136724
-0.09742156
-0.04644682
-0.03461334
-0.04250368
-0.04598499
-0.05505411
-0.04477004
0.004035984
0.06539709
0.1103479
0.1317204
0.1018645
0.03383123
-0.005686651
-0.01479007
-0.02162266
-0.04611327
-0.08219092
-0.09859498
-0.09882565
-0.06988356
-0.01177721
0.04797101
0.1106374
0.1512994
0.1553001
0.1611254
0.1537031
0.1044575
0.06829225
0.0464073
-0.0049957
-0.06838147
-0.1137987
-0.1171604
-0.08986537
-0.0667463
-0.07159933
-0.09961851
-0.1299553
-0.1601777
-0.1555345
-0.08622071
0.004953183
0.07881269
0.1365946
0.171161
0.1716071
0.1439739
0.1176069
0.1219545
0.1484399
0.1527206
0.1134317
0.05591819
-0.01464774
-0.06822529
-0.08441971
-0.1001843
-0.1141817
-0.1401566
-0.1627356
-0.1542683
-0.1440721
-0.1250807
-0.120536
-0.1300538
-0.1159201
-0.1001702
-0.07170927
-0.02669256
0.01670429
0.06537553
0.08900277
0.08339297
0.1016415
0.1264655
0.1010647
0.0511836
0.01687742
0.008225789
0.020693
0.01730835
0.002351547
0.01972985
0.05756977
0.07943875
0.09775165
0.1246264
0.1321419
0.09991122
0.05310966
0.03474954
0.03323562
0.02467156
0.0002128604
-0.04554994
-0.08697654
-0.1157033
-0.1137892
-0.08738448
-0.07528224
-0.07412198
-0.08797123
-0.09588887
-0.08153661
-0.05890581
-0.02152186
0.02690685
0.06717932
0.0721966
0.04657849
0.02585096
0.03498424
0.04696124
0.02633825
0.002645961
-0.009289335
-0.008243492
0.01689549
0.05726529
0.08394635
0.06666163
0.02118033
-0.05158669
-0.1241361
-0.1494079
-0.1352198
-0.08437399
-0.02660949
-0.02397552
-0.05032426
-0.03029488
-0.2934926
-0.696817
-0.3331281
0.3737325
0.6095822
0.7097336
0.7540208
0.5992975
0.4198813
0.2899013
0.1604728
0.02091005
-0.1009705
-0.2133862
-0.3369434
-0.4833292
-0.4963165
-0.5298678
-0.4886553
0.05851198
-0.02774332
-0.9288592
-0.9748288
-0.3703301
0.01091898
0.2015202
0.1970768
0.1185516
0.1324595
0.276735
0.4651204
0.5742136
0.5927201
0.5819498
0.575633
0.5124816
0.3866697
0.268074
0.1669163
0.05110024
-0.05959365
-0.1331118
-0.1786446
-0.1705291
-0.1338774
-0.1405056
-0.1884645
-0.2700838
-0.359549
-0.4109027
-0.4207052
-0.4068085
-0.3908696
-0.3992446
-0.4116292
-0.3706208
-0.2738675
-0.1667826
-0.0844046
-0.0140422
0.05639311
0.1120325
0.1347591
0.1286963
0.1270698
0.1277372
0.1419679
0.1872329
0.2371686
0.2860348
0.3432951
0.3808351
0.3664211
0.3504471
0.3664163
0.3903373
0.4354865
0.469801
0.472963
0.4947489
0.5493481
0.6663084
0.8427909
0.9668261
1.001416
1.024022
0.9895647
0.7728918
0.4116414
-0.09482667
-0.9019977
-1.978734
-3.201859
-4.5152
-5.714203
-6.398812
-6.037357
-4.393744
-1.725202
1.391078
4.10806
5.735045
6.044928
5.110611
3.215608
1.207977
0.006239287
-0.2647061
0.1166561
0.7864426
1.316085
1.399956
1.013919
0.3566539
-0.2143088
-0.3023832
0.03008876
0.4209068
0.509185
-0.04972567
-1.086462
-2.04281
-2.549582
-2.450763
-1.851923
-0.9883044
-0.005848069
0.9593011
1.799057
2.435672
2.777809
2.777848
2.455888
1.851699
0.9742702
-0.2366101
-1.779466
-3.347848
-4.546303
-5.22469
-5.323653
-4.778672
-3.671466
-2.225314
-0.6379018
0.9207637
2.196089
3.01382
3.391953
3.43341
3.268651
2.974156
2.574889
2.102656
1.604156
1.108791
0.5998455
0.1272428
-0.2062185
-0.4035923
-0.5315656
-0.6250997
-0.7122662
-0.7849299
-0.826007
-0.8575652
-0.8657351
-0.8448495
-0.7762725
-0.6466854
-0.5164171
-0.3855374
-0.2446975
-0.1449638
-0.111358
-0.09240162
-0.01719549
0.1296111
0.2888262
0.3774985
0.4102308
0.3849447
0.2910143
0.1808868
0.05149837
-0.0631792
-0.1124104
-0.1073154
-0.04307051
0.03874731
0.03373042
-0.05040335
-0.1057995
-0.08790137
-0.03101454
-0.01497668
-0.04935892
-0.07397287
-0.07766103
-0.07970057
-0.09991643
-0.1026463
-0.06425342
-0.03878791
-0.02973088
-0.002501222
0.02618377
0.05192075
0.1056493
0.1891481
0.2872302
0.3565187
0.3531388
0.2970682
0.2125032
0.1072963
-0.01468637
-0.1362793
-0.1814016
-0.1363397
-0.1232509
-0.1789262
-0.211474
-0.2088054
-0.1784364
-0.1001465
-0.03047751
0.01598975
0.02502777
-0.02743636
-0.05067657
-0.02369385
0.009613686
0.03789324
0.0613614
0.09174203
0.08818738
0.04238027
0.01145172
0.009413712
-0.0008121455
-0.03157294
-0.06345633
-0.09382647
-0.09695442
-0.05535547
0.007176242
0.0822112
0.134221
0.1484877
0.168203
0.1720146
0.1302569
0.07961074
0.04854518
0.03070038
0.02927711
0.03741282
0.02731478
0.01070983
-0.01748829
-0.06761267
-0.1235163
-0.1881792
-0.2244576
-0.2142703
-0.1952594
-0.164876
-0.1300291
-0.08611025
-0.02335304
0.02044493
0.05974663
0.0952787
0.1121287
0.1123863
0.07837411
0.06457277
0.09793402
0.1416521
0.2056995
0.2761873
0.2946657
0.2386998
0.1441175
0.03051775
-0.11369
-0.1837169
-0.07681257
0.0340311
-0.03674624
-0.1780446
-0.2899904
-0.3526908
-0.3503118
-0.4655041
-0.5603706
-0.2988314
0.03248917
0.118623
0.111798
0.08757783
0.002385612
-0.006277476
-0.1517734
-0.5042953
-0.297886
0.3337064
0.5891497
0.6195831
0.6250284
0.5136878
0.3719803
0.2491537
0.1457441
0.06307371
0.01734865
0.008793094
-0.01383033
-0.06057221
-0.1081477
-0.1340714
-0.135268
-0.1273895
-0.1282871
-0.1355226
-0.1072208
-0.0562162
-0.01857792
0.01280929
0.01534648
-0.002099364
-0.0234826
-0.06173462
-0.08432606
-0.08102993
-0.05287561
-0.02435448
-0.002801441
0.03315586
0.02355376
-0.02164638
-0.06413828
-0.1188542
-0.1356901
-0.1135789
-0.08319305
-0.03964379
-0.02004071
-0.05497851
-0.137191
-0.07777163
0.06336185
0.1038284
0.3526947
0.524002
0.1979587
-0.2160064
-0.4025762
-0.2683541
0.03836523
0.2420912
0.2478622
0.04194566
-0.2113558
-0.3088419
-0.2044374
0.01828888
0.2227647
0.3069008
0.3022574
0.3061109
0.3145882
0.2715352
0.1714428
0.04513455
-0.1128519
-0.3475899
-0.4820531
-0.2254777
0.1994904
0.3947236
0.3965585
0.1345825
-0.4349868
-0.7930613
-0.7714767
-0.5273893
-0.1739951
-0.3218825
-0.8341098
-0.9537625
-0.7713504
-0.268798
0.943985
2.077149
1.709628
0.5562969
0.161469
0.5862423
1.605132
2.415031
2.107233
1.137288
0.06349937
-1.058676
-2.07436
-2.784248
-3.005155
-2.652231
-1.850465
-0.9263365
-0.2771736
-0.05567902
-0.1776959
-0.4716278
-0.6679848
-0.6057857
-0.3042773
0.3524639
1.445407
2.581399
3.152689
2.916471
2.131974
1.217932
0.5058168
0.1425973
0.04858944
0.09947114
0.1617132
0.07666389
-0.2020452
-0.6141716
-0.9948105
-1.20008
-1.263859
-1.212359
-1.078858
-0.9554942
-0.8344657
-0.714964
-0.5919159
-0.3989503
-0.2006278
-0.05837477
0.0585236
0.1172201
0.1140041
0.1202439
0.1996936
0.3212536
0.392487
0.3952636
0.3335537
0.2456203
0.1896148
0.1597403
0.184687
0.2567051
0.3056355
0.3147644
0.2950576
0.2670464
0.2362625
0.2157364
0.203896
0.1718566
0.1357045
0.09578232
0.04004145
-0.01216077
-0.05685446
-0.09201416
-0.113037
-0.1250315
-0.1344334
-0.1496602
-0.1682648
-0.1917418
-0.2216312
-0.2406013
-0.261209
-0.2858083
-0.236624
-0.1249987
-0.05581071
-0.01694315
0.03648823
0.09101509
0.1188766
0.1060238
0.1016476
0.1373331
0.150525
0.09882931
0.02798328
-0.02011926
-0.05091688
-0.07094079
-0.08354586
-0.09564126
-0.1030572
-0.110081
-0.1145793
-0.08801377
-0.03080092
0.01849448
0.05290899
0.09083343
0.1320706
0.1509311
0.1271164
0.09714045
0.06093257
0.0005740108
-0.03346609
-0.04093181
-0.02012613
0.0433473
0.07236346
0.05374726
0.01561646
-0.0652695
-0.1288144
-0.1119669
-0.04850274
0.01622569
0.06497148
0.09019919
0.08530505
0.08038565
0.08602361
0.08517204
0.1210715
0.1870704
0.2039184
0.1787082
0.1570986
0.1312166
0.09313426
0.04418236
-0.02488164
-0.1130216
-0.2371144
-0.3884299
-0.4961255
-0.5622433
-0.6072285
-0.5733953
-0.4649438
-0.3320631
-0.1909932
-0.07739896
0.007136744
0.1193427
0.2467531
0.3424828
0.4185363
0.4662952
0.4764269
0.4737169
0.445852
0.3930565
0.3399252
0.2870888
0.2304839
0.166954
0.105146
0.03969497
-0.04213539
-0.1154972
-0.1735574
-0.2339487
-0.2902505
-0.3249273
-0.3221035
-0.2732677
-0.1937064
-0.1252824
-0.08831189
-0.0659496
-0.05238384
-0.04281388
-0.02371504
0.002685945
0.0228474
0.02703028
0.02083963
0.0003571684
-0.03764639
-0.05190943
-0.04020268
-0.04407306
-0.05399867
-0.07410558
-0.1093501
-0.1318035
-0.1171471
-0.03213935
0.07325268
0.1361247
0.1898693
0.2263401
0.2268956
0.2122421
0.1754711
0.1465643
0.1461226
0.1273955
0.07603512
0.01784134
-0.01782101
-0.00972739
0.005280447
0.002998167
0.02858225
0.06527744
0.04667184
-0.04121097
-0.147584
-0.2120498
-0.2208156
-0.1791491
-0.1199795
-0.06145038
0.002076194
0.07125498
0.154217
0.2054338
0.1713208
0.07698215
-0.02658137
-0.11482
-0.1691152
-0.2022088
-0.2196013
-0.1905202
-0.1554594
-0.158637
-0.1611103
-0.1078143
-0.01705667
0.05782924
0.1223829
0.1506185
0.1487539
0.1515728
0.1085687
0.07274236
0.09708188
0.1054352
0.09642126
0.09126052
0.05881791
0.003573771
-0.02740948
-0.02382989
-0.0163283
0.004972604
0.02226097
0.0151244
0.02582738
0.04349094
0.06493282
0.07861064
0.03077913
-0.02531997
-0.06085517
-0.09707367
-0.11024
-0.118729
-0.1345896
-0.1495603
-0.1441946
-0.09091242
-0.02643173
0.01165732
0.02398565
0.01638639
0.01247298
0.03984393
0.05541503
0.03595953
0.04534587
0.0674739
0.06756165
0.03357443
-0.0293544
-0.0478707
-0.01816498
0.04545222
0.1218227
0.1716658
0.2035272
0.1847498
0.1192416
0.05463421
-0.006841032
-0.05683799
-0.06304641
-0.01920849
0.01753226
-0.001290429
-0.07132031
-0.1503009
-0.1963889
-0.2074342
-0.2046967
-0.189304
-0.127707
-0.04840287
-0.003224465
0.01939298
0.02688047
0.03208867
0.04684154
0.04560827
0.04364896
0.07699256
0.110984
0.1157647
0.09970349
0.05395149
0.007677952
0.002689267
-0.0008225626
-0.03089153
-0.06233704
-0.09132411
-0.08679096
-0.03361334
0.02401035
0.0717482
0.1206927
0.1755767
0.1869362
0.1061542
0.007911774
-0.0213082
-0.008049028
-0.007827801
-0.04367039
-0.1166888
-0.1862005
-0.2096582
-0.1560463
-0.02845398
0.1052722
0.1680878
0.1408742
0.09866266
0.07722394
0.03543947
-0.04217239
-0.1016604
-0.1042436
-0.1323683
-0.1779424
-0.177375
-0.1569213
-0.07179362
0.07504278
0.1787603
0.192142
0.1441579
0.08946219
0.04124976
-0.01058842
-0.06750975
-0.09559371
-0.09805004
-0.1076363
-0.07776093
-0.01077512
0.05709249
0.1320864
0.1642299
0.134903
0.1084098
0.09688682
0.1010163
0.1150203
0.06943599
-0.01769392
-0.062615
-0.06562103
-0.05495611
-0.0411967
-0.03635177
-0.05087151
-0.06018102
-0.04372632
-0.05298458
-0.06268512
-0.05019759
-0.06867946
-0.0911937
-0.1062183
-0.1075931
-0.1264175
-0.1830503
-0.1829351
-0.1236375
-0.04383479
0.05485434
0.1312275
0.1587429
0.1568596
0.1544734
0.1729308
0.1892444
0.1723007
0.1679897
0.1765399
0.1598455
0.1256445
0.07197995
0.05737681
0.09569763
0.1316293
0.1421463
0.08210199
0.004322083
-0.1484459
-0.3116555
-0.1591776
0.01478913
-0.1118763
-0.3082461
-0.4930947
-0.6048523
-0.5509136
-0.378387
-0.1786093
-0.0529052
0.01470973
0.09425702
0.2298177
0.3832788
0.4544375
0.4464748
0.4373717
0.441459
0.3988335
0.3055
0.2151612
0.1423773
0.0653412
-0.02169569
-0.08529308
-0.1485624
-0.2480268
-0.3246035
-0.3587258
-0.3713644
-0.3380605
-0.3064364
-0.3211655
-0.324619
-0.3139484
-0.3219896
-0.3309343
-0.2984501
-0.1951864
-0.03422689
0.1449318
0.2843601
0.383532
0.4335248
0.4358139
0.4924091
0.5896506
0.6424659
0.618565
0.5434294
0.4847733
0.4147043
0.3015236
0.1929044
0.08860331
-0.06534363
-0.2386947
-0.3433333
-0.3588722
-0.368073
-0.4313292
-0.5094996
-0.5985812
-0.6639382
-0.677729
-0.7084292
-0.7109146
-0.6168911
-0.4865838
-0.3384857
-0.14945
0.03224863
0.1619419
0.2572664
0.3459764
0.4286079
0.4965226
0.5343102
0.4780571
0.333744
0.2418313
0.2181661
0.1866475
0.1734872
0.1941582
0.2336545
0.2856403
0.3318435
0.3799365
0.4536669
0.5418909
0.6862954
0.9157648
1.14781
1.335877
1.388022
1.262853
1.087126
0.8866426
0.5847594
0.1123368
-0.5959688
-1.61703
-2.987252
-4.556639
-6.038175
-7.091844
-7.258325
-6.154127
-3.703032
-0.3355755
3.065841
5.656998
6.876353
6.7751
5.598357
3.731815
1.781188
0.2203228
-0.1936918
0.09506354
0.2150061
0.2950052
0.1055441
-0.3418881
-0.732716
-0.765797
-0.3735138
0.1717971
0.8582807
1.438401
1.488605
0.7161519
-0.7006078
-2.054674
-2.849925
-2.938692
-2.344754
-1.190257
0.3563682
2.035304
3.400456
3.97706
3.659385
2.649804
1.212738
-0.3599848
-1.899302
-3.277627
-4.276296
-4.799569
-4.905616
-4.658874
-4.085644
-3.211145
-2.079732
-0.7091529
0.8186046
2.260621
3.363802
4.003416
4.171189
3.970647
3.512656
2.845521
2.099684
1.426948
0.8699403
0.4337755
0.0806623
-0.2150992
-0.4235854
-0.5515974
-0.6670768
-0.821996
-0.9953032
-1.169722
-1.282048
-1.278476
-1.201979
-1.047516
-0.8480107
-0.6482025
-0.4123385
-0.1573015
0.05730832
0.2057303
0.3178342
0.4021099
0.4390489
0.4296189
0.3565583
0.251193
0.178346
0.1648672
0.1924486
0.2029708
0.1776462
0.0915712
-0.03662891
-0.1050127
-0.1028072
-0.09546325
-0.152861
-0.2640421
-0.3554511
-0.4022859
-0.3726
-0.2744026
-0.1595283
-0.0351933
0.08138838
0.195699
0.3119931
0.3496669
0.3411375
0.3656796
0.35446
0.2809182
0.2027779
0.1215903
0.009933895
-0.07929324
-0.1313315
-0.1995147
-0.2335507
-0.2212657
-0.2042812
-0.1718625
-0.1475627
-0.1273645
-0.09080554
-0.03765699
0.05525639
0.1390763
0.1480427
0.1463489
0.1445706
0.0598909
-0.0388236
-0.07671694
-0.04608336
0.04097828
0.1075801
0.1607134
0.2122317
0.2267282
0.17624
0.05305519
-0.053091
-0.08051059
-0.06571101
-0.05952387
-0.1049287
-0.1931241
-0.2515167
-0.2623594
-0.2525933
-0.2017506
-0.09692381
0.04654963
0.1846745
0.2762005
0.3108308
0.2721283
0.1949584
0.1515019
0.139989
0.07441812
-0.06002635
-0.1709927
-0.2393437
-0.2389698
-0.1599784
-0.1519915
-0.2076445
-0.1676252
-0.06011987
0.01441288
0.07790422
0.1675255
0.1929609
0.1341356
0.06449841
-0.04633817
-0.1322785
-0.1487861
-0.184099
-0.189036
-0.165849
-0.1384383
-0.04397782
0.06374138
0.1506441
0.1825118
0.1106865
0.03383362
0.01018825
0.05021155
0.1498322
0.1977281
0.2115411
0.2333902
0.196605
0.1377988
0.07161572
0.01366867
-0.03553035
-0.132156
-0.1689825
-0.1289588
-0.07433297
0.01051444
0.02084931
-0.05876755
-0.108716
-0.07601788
-0.006092011
-0.003897452
-0.03999341
-0.03725959
-0.06483136
-0.1397723
-0.1487411
-0.09145616
-0.04900062
-0.003166691
0.070489
0.1407606
0.1750746
0.1670881
0.1403249
0.112555
0.09825602
0.103901
0.08658022
0.006248092
-0.08818565
-0.1330703
-0.1574993
-0.1984364
-0.2194427
-0.1942258
-0.1333879
-0.03128173
0.09405295
0.1769005
0.1731516
0.1208797
0.07576998
0.06314007
0.08878379
0.05379985
-0.05044722
-0.1057454
-0.1317149
-0.1105816
-0.05917792
-0.0902302
-0.1271918
-0.09941758
-0.03722002
0.01144434
0.006693747
0.0007145943
0.01029162
0.03645827
0.08987013
0.1234492
0.1320257
0.1209739
0.07785366
0.03072705
0.008929801
-0.0163434
-0.05356989
-0.04364175
-0.01899137
-0.01264275
0.03759936
0.1217233
0.190261
0.2180784
0.2171353
0.1667655
0.02314766
-0.09211567
-0.1131589
-0.1415751
-0.1659645
-0.0990046
0.01412359
0.05081636
0.05053985
0.06722221
-0.01963056
-0.1471749
-0.2271628
-0.2100027
-0.02952766
-0.3499804
-1.116706
-1.271569
-1.170696
-1.025122
0.06637584
1.376214
1.272792
0.4689712
0.5523919
1.414665
2.592808
3.289637
2.6864
1.496292
0.4349574
-0.5855983
-1.508952
-2.312927
-3.02222
-3.378945
-3.214231
-2.676283
-2.056479
-1.588491
-1.308796
-0.9934059
-0.2416736
0.974562
2.059756
2.518493
2.428613
2.131771
1.924627
1.823298
1.712942
1.599563
1.40505
1.07409
0.728705
0.4315925
0.1879985
0.01678477
-0.1837664
-0.530048
-0.9644076
-1.360931
-1.634478
-1.735979
-1.713804
-1.631631
-1.464575
-1.242105
-0.9491874
-0.5398197
-0.1759731
0.01547115
0.1100046
0.2107883
0.3732225
0.5920573
0.7717747
0.7987691
0.688112
0.5629467
0.451403
0.31229
0.213366
0.210169
0.2655809
0.294166
0.2578236
0.1981466
0.1144092
0.05478674
0.04878135
0.03378685
0.02817108
0.04296558
0.04253612
0.04965797
0.05536854
0.02184578
-0.02521858
-0.05024876
-0.04183406
-0.05952246
-0.1553818
-0.241387
-0.2732621
-0.2924835
-0.2966003
-0.2762735
-0.2263953
-0.1775703
-0.1604274
-0.1375833
-0.1051313
-0.08826303
-0.061453
0.02068898
0.1545021
0.2388662
0.235559
0.2149215
0.184495
0.1464321
0.1272774
0.1122133
0.08245576
0.0615571
0.03657414
-0.01621634
-0.01756222
0.03334825
0.04869406
0.03348636
0.035468
0.02248293
-0.0413271
-0.09026499
-0.0909901
-0.06462047
-0.02998614
0.0004915423
0.01195809
-0.02511229
-0.07850876
-0.1305624
-0.1800774
-0.1883857
-0.1765497
-0.1561988
-0.1207197
-0.09504773
-0.07656533
-0.05765308
-0.02482965
0.02876848
0.0556546
0.05814326
0.1069494
0.1814419
0.2353458
0.3047025
0.3856706
0.4378391
0.4664052
0.4651927
0.3946443
0.2735643
0.1968794
0.1309019
-0.01911401
-0.1878145
-0.3507831
-0.5098361
-0.6008471
-0.6558062
-0.6848703
-0.6521562
-0.5749892
-0.4618672
-0.3454753
-0.218512
-0.03061844
0.1358714
0.2219975
0.2889045
0.3463766
0.3719252
0.3591937
0.3207732
0.2902692
0.2922504
0.3225033
0.3397754
0.3092535
0.242584
0.1758753
0.1194909
0.05761603
-0.01933336
-0.08023969
-0.1118207
-0.165077
-0.2442124
-0.2878959
-0.2686574
-0.2296788
-0.2053469
-0.1646733
-0.07563725
0.03727215
0.1098672
0.1189666
0.103657
0.06936704
0.0118836
-0.0307326
-0.0690712
-0.1184301
-0.1537889
-0.1673452
-0.1571223
-0.1275972
-0.07472703
-0.006802313
0.0537294
0.126999
0.1909086
0.1775816
0.1098226
0.0606765
0.03874422
0.02099446
0.02594004
0.03487305
0.004065608
-0.0229398
-0.02344861
-0.01914172
0.006642603
0.0398791
0.05237015
0.07710178
0.1142608
0.1091194
0.06100854
0.01813876
0.009550343
-0.01771403
-0.06066586
-0.04955212
-0.04499196
-0.06593776
-0.06309061
-0.04872793
-0.04433399
-0.06481741
-0.09383246
-0.1285266
-0.1495069
-0.1152208
-0.0531873
-0.02504838
-0.02013362
0.0246436
0.08228175
0.1126
0.1175372
0.09982313
0.09824243
0.104094
0.09547924
0.07812686
0.04966261
0.05328901
0.07986063
0.0830467
0.08416329
0.06233467
-0.02456049
-0.1230303
-0.168469
-0.1790978
-0.1676133
-0.1220393
-0.07620671
-0.05354622
-0.03845323
-0.01488719
0.01274115
0.02387202
0.01936366
0.01876605
0.04449966
0.0814356
0.0709933
0.04157297
0.03742479
0.008651467
-0.02303353
-0.02053785
-0.02009802
-0.02318328
-0.0283811
-0.03481119
-0.02761892
-0.01614219
-0.01218351
-0.002157751
0.02024636
0.04285777
0.05719638
0.04796333
0.0242513
0.0161849
0.03093976
0.03619845
0.02866158
0.0535277
0.06769912
0.01787529
-0.04637865
-0.08521724
-0.1005763
-0.09899804
-0.05971513
0.007971145
0.02804362
0.008458188
-0.002070475
-0.01964241
-0.04213053
-0.03809397
0.004769505
0.06518388
0.1121382
0.1158698
0.07267016
0.01612028
-0.03479817
-0.06705177
-0.08161353
-0.09083142
-0.08960317
-0.0945209
-0.1095506
-0.1004512
-0.05961478
0.01795494
0.1160672
0.1682975
0.1636338
0.1396974
0.1181023
0.09966944
0.09211274
0.09314278
0.07984963
0.07881392
0.09057045
0.08687852
0.05628636
-0.01068926
-0.06200177
-0.08379755
-0.1127078
-0.1511083
-0.2071214
-0.2613913
-0.2824844
-0.2717516
-0.2375007
-0.1917908
-0.1348174
-0.06742459
0.007283953
0.0753274
0.1128729
0.1332314
0.1490209
0.1547046
0.1421871
0.1283792
0.1347954
0.1642093
0.2196842
0.2477657
0.1930721
0.0754698
-0.02938331
-0.08664309
-0.1152345
-0.09364083
-0.03839288
0.007025363
0.02128103
-0.01319205
-0.05989254
-0.08054704
-0.08154102
-0.08360788
-0.09061985
-0.0982625
-0.07740488
-0.02327852
0.002560226
-0.006605216
-0.02107433
-0.02358512
-0.006149397
0.02196684
0.04172048
0.03311395
0.002078686
-0.04359914
-0.06744663
-0.03943175
0.007631544
0.05257285
0.09193987
0.09201733
0.04469189
0.01059372
0.01393699
0.0254454
0.04191309
0.05644803
0.05683358
0.06893344
0.09427354
0.09495284
0.07389481
0.04335784
0.01424707
-0.001964814
-0.03070836
-0.06378097
-0.07450453
-0.0804377
-0.1023054
-0.1264047
-0.1355372
-0.1407086
-0.1280809
-0.08624958
-0.05653206
-0.04631494
-0.01721343
0.02551817
0.04121625
0.03603604
0.03305196
0.02222462
0.01014304
-0.0004535374
-0.01714248
-0.02681518
-0.02565835
-0.009617797
0.01797153
0.0513115
0.08448663
0.09670123
0.08647122
0.07427725
0.08168319
0.08986463
0.08303631
0.07958191
0.08407179
0.1054932
0.143903
0.1720358
0.1547775
0.09922343
0.05744608
0.0378553
0.0004447133
-0.07781091
-0.1815345
-0.2859448
-0.364026
-0.3813987
-0.3406906
-0.2629079
-0.1700367
-0.09065889
-0.011911
0.05263546
0.0512784
0.01129234
-0.02320499
-0.05117039
-0.04054932
0.004055961
0.02688018
0.05267979
0.1152165
0.174001
0.2466363
0.3719223
0.4723644
0.4774523
0.3789324
0.2246328
0.09618504
-0.003187288
-0.08167774
-0.1207165
-0.1074726
-0.07289541
-0.056353
-0.06541267
-0.1447998
-0.2612055
-0.3503691
-0.4384195
-0.5162488
-0.5572836
-0.5633086
-0.5205197
-0.4365602
-0.3269153
-0.1883297
-0.02450605
0.1776942
0.3826516
0.5084812
0.5378264
0.505048
0.474749
0.4954536
0.5533472
0.6097053
0.6446553
0.6304029
0.5525567
0.4587901
0.3573887
0.2301402
0.100397
-0.0438603
-0.2114393
-0.3633805
-0.5082836
-0.6677529
-0.8004233
-0.887495
-0.9427788
-0.9325785
-0.8364595
-0.6808808
-0.4947962
-0.3196097
-0.1522651
0.01372671
0.1397711
0.2270591
0.2804667
0.303896
0.316387
0.3116029
0.2800878
0.2488154
0.242819
0.2472732
0.258707
0.2839423
0.3115952
0.3008639
0.2693823
0.3019092
0.3664441
0.4024552
0.4503117
0.5454153
0.6990091
0.8839115
1.035456
1.153403
1.284175
1.399145
1.408523
1.286459
1.047129
0.6749125
0.02216543
-1.114182
-2.636106
-4.320517
-5.988928
-7.299451
-7.863587
-7.309981
-5.436458
-2.419493
1.231255
4.662721
6.949943
7.634267
6.895519
5.128825
3.024609
1.470852
0.8530114
0.8674186
0.7531315
0.9470631
1.442267
0.7604846
-0.3495548
-0.9832714
-1.749589
-2.435947
-2.632809
-2.29004
-1.580128
-0.6872137
0.1612881
0.4947788
0.07551664
-0.8078434
-1.491746
-1.44303
-0.5309212
1.019258
2.657212
3.815577
4.236195
3.807641
2.572015
0.9208496
-0.7078339
-2.129984
-3.21855
-3.771705
-3.759123
-3.369128
-2.872934
-2.485905
-2.253628
-2.106355
-1.872131
-1.358932
-0.4651014
0.7483776
2.024541
3.05425
3.633068
3.734113
3.43646
2.846385
2.10369
1.359815
0.7283853
0.2516905
-0.06490975
-0.2582025
-0.4217033
-0.632566
-0.8923402
-1.139896
-1.310543
-1.350915
-1.251284
-1.068397
-0.8110552
-0.4843295
-0.1754868
0.07479502
0.2488962
0.3063277
0.289532
0.2712577
0.2548891
0.2525332
0.2887076
0.314923
0.2840807
0.2080169
0.1282567
0.06732982
0.01079107
-0.04025302
-0.1020921
-0.1898253
-0.240866
-0.2384099
-0.23141
-0.2283466
-0.2290895
-0.220673
-0.1869554
-0.1138283
0.005437283
0.1134073
0.1978521
0.2840075
0.316541
0.3052718
0.301015
0.2706184
0.1957045
0.07716645
-0.04763808
-0.1223073
-0.147124
-0.1470236
-0.1290402
-0.09067831
-0.07789183
-0.1134401
-0.1671911
-0.2122508
-0.223814
-0.2066497
-0.1866218
-0.1379841
-0.02613209
0.09080648
0.1849249
0.2463092
0.2352074
0.1890615
0.1403663
0.109999
0.09806313
0.06872064
0.01426691
-0.0660249
-0.1334172
-0.1527612
-0.09757361
0.03477629
0.1505278
0.2053815
0.2303635
0.2138333
0.1257173
-0.004460216
-0.1137393
-0.1528207
-0.1286902
-0.06291183
0.08868323
0.1708784
-0.005568261
-0.2394513
-0.314418
-0.2261448
-0.02868348
0.1334745
0.2018485
0.2420996
0.2226657
0.1456672
0.09992018
0.05482413
-0.04837119
-0.1434506
-0.1914177
-0.2108906
-0.1908693
-0.1705026
-0.1668018
-0.147547
-0.1230593
-0.1112886
-0.1108374
-0.1180436
-0.1464906
-0.1530147
-0.1072107
-0.0575688
0.02800397
0.1710686
0.2843453
0.3242134
0.3025113
0.2428183
0.1814449
0.1256365
0.0833504
0.05476813
0.01697954
-0.01042987
-0.01380406
-0.0352725
-0.09130409
-0.1327366
-0.1234968
-0.09069104
-0.05966024
-0.02073762
0.01984785
0.04146918
0.04893353
0.06201797
0.07951094
0.09469914
0.1028819
0.1038573
0.1123533
0.1063091
0.08661698
0.07647355
0.0360072
-0.04675072
-0.1288495
-0.1750591
-0.1884478
-0.2012544
-0.2283746
-0.2396314
-0.1906116
-0.1010431
-0.008487307
0.09452415
0.1792722
0.1929402
0.1638265
0.1415107
0.1138144
0.06687369
0.01916251
-0.02417956
-0.05924411
-0.07046188
-0.09515587
-0.1494968
-0.1884775
-0.2045977
-0.1864301
-0.1362415
-0.07805218
-0.0115238
0.02642557
0.04357377
0.09934437
0.1688515
0.1974047
0.1884505
0.1883436
0.2051919
0.1943152
0.1489882
0.07211563
-0.009706124
-0.04808799
-0.0686669
-0.06406842
-0.02557394
-0.01967396
-0.05402515
-0.1128005
-0.1777664
-0.2040615
-0.2006613
-0.1743211
-0.1035464
-0.005843991
0.076507
0.1283653
0.1605561
0.1688077
0.1766375
0.207828
0.2366353
0.2387539
0.1981367
0.1221148
0.0249755
-0.07516923
-0.1542584
-0.1939046
-0.1520345
-0.04880212
0.02926132
0.04913702
0.02988055
-0.0132428
-0.1306882
-0.2691453
-0.3592348
-0.3905852
-0.1737468
-0.2026604
-0.7850928
-1.155961
-1.506178
-1.798481
-0.5811407
1.747232
2.513135
1.336522
0.6603297
1.322585
2.524275
3.387986
2.991385
1.695314
0.4214904
-0.7892782
-1.989267
-3.033292
-3.752886
-3.861935
-3.405977
-2.623588
-1.705547
-1.024002
-0.6390678
-0.2718353
0.2333337
1.005842
1.809029
2.178558
2.169432
2.064385
1.960834
1.876976
1.797456
1.733578
1.593049
1.201005
0.6836335
0.2367799
-0.1646388
-0.5083983
-0.780096
-1.045537
-1.332209
-1.630223
-1.853894
-1.878823
-1.673224
-1.31462
-0.9169985
-0.5176966
-0.1348992
0.1653144
0.377908
0.5271499
0.5910679
0.5411327
0.4149743
0.3017263
0.2039429
0.1004263
0.02331214
-0.03628583
-0.07283897
-0.06092687
-0.02692531
0.008987204
0.04331572
0.08027018
0.1484268
0.245487
0.3332433
0.4182957
0.5162446
0.5681879
0.5229608
0.4011656
0.2453259
0.08137438
-0.07859892
-0.1951679
-0.2517017
-0.2710569
-0.2473441
-0.19486
-0.1717692
-0.1696505
-0.1406492
-0.1036411
-0.07686453
-0.07545704
-0.08985495
-0.0973234
-0.1240934
-0.1459174
-0.1374087
-0.1036262
-0.06131453
-0.04255871
-0.03012644
-0.0161635
-0.003564573
0.02667311
0.04251849
0.02028367
0.01090298
0.02422346
0.02547639
0.03538275
0.084624
0.1472742
0.1661901
0.1351898
0.1088506
0.09698014
0.06546231
0.01785053
-0.02088249
-0.04261427
-0.04314483
-0.02722799
0.001288158
0.0363023
0.04523414
0.0378373
0.03457363
0.005108751
-0.04681816
-0.07983617
-0.08396237
-0.08449597
-0.1074468
-0.1383902
-0.1449879
-0.1255348
-0.09662089
-0.0668807
-0.01730907
0.0642585
0.1549697
0.2220521
0.2460484
0.2389918
0.215931
0.1876108
0.1701805
0.1650434
0.145737
0.09633343
0.03669582
-0.04485331
-0.1302872
-0.1816858
-0.2499491
-0.325552
-0.3629116
-0.3896864
-0.404389
-0.3873814
-0.3383547
-0.264707
-0.1923172
-0.1322708
-0.04411311
0.07411116
0.1697924
0.2382938
0.280518
0.2837218
0.2667997
0.258909
0.2698453
0.2916242
0.3035568
0.2852861
0.2547549
0.2292334
0.2117776
0.1896547
0.1148977
0.009955864
-0.07740948
-0.1621028
-0.2367277
-0.2809968
-0.2855536
-0.247925
-0.1849811
-0.1213539
-0.07995399
-0.07728688
-0.1027515
-0.07974349
-0.0006911609
0.04568345
0.0451039
0.05420326
0.1033466
0.1325286
0.1091591
0.08910896
0.07247973
0.03423326
-0.02432634
-0.09688663
-0.1305502
-0.1111651
-0.08641706
-0.05794371
-0.03025889
-0.01699685
-0.003122827
-0.0007763383
-0.01949262
-0.03801227
-0.06276222
-0.08336787
-0.06320205
-0.04322651
-0.05191927
-0.05095925
-0.02145331
0.01795116
0.04619674
0.08412724
0.1006389
0.08418553
0.09321487
0.1095026
0.1283972
0.1456537
0.1270137
0.08559271
0.04134393
0.02737045
0.04112716
0.05478278
0.07897549
0.09558033
0.07502422
0.03526155
-0.007870466
-0.05138588
-0.08874873
-0.1314342
-0.1702627
-0.1818683
-0.1895128
-0.2136458
-0.2162062
-0.1717082
-0.1203392
-0.07092135
-0.008476458
0.02651688
0.03423024
0.03648684
0.01812906
-0.002171369
0.004525052
0.05345444
0.1323179
0.1949276
0.2262479
0.232197
0.2050856
0.158733
0.1221735
0.08260667
0.02568086
-0.0201525
-0.03795489
-0.05094694
-0.0729722
-0.07346084
-0.0730424
-0.09824344
-0.1002274
-0.1022951
-0.1284419
-0.1143837
-0.07641637
-0.0682437
-0.06248207
-0.0347712
-0.001861674
0.01338175
0.01363376
0.01348748
0.003425702
-0.0202975
-0.04200015
-0.04015981
-0.02089858
0.01516504
0.07458869
0.1117588
0.116835
0.111197
0.08453295
0.05011358
0.03156117
0.03599145
0.05005317
0.05551615
0.06165979
0.06638729
0.04600997
0.008307325
-0.01916884
-0.04636063
-0.06541243
-0.06971882
-0.0854837
-0.0803396
-0.07478666
-0.099157
-0.1042391
-0.1030528
-0.09153585
-0.05996078
-0.04122697
-0.01291463
0.01543242
0.006273069
-0.002648623
0.02849406
0.07874725
0.1220693
0.1604536
0.1784106
0.1556298
0.1091565
0.0465281
-0.01260929
-0.04215179
-0.07077675
-0.09452742
-0.08652434
-0.06732024
-0.04087104
-0.01436424
0.003489723
0.0293296
0.03684383
0.02992356
0.06718203
0.1270598
0.127304
0.0503363
-0.02824578
-0.07150125
-0.107964
-0.1237732
-0.1234502
-0.1385827
-0.1656172
-0.1816972
-0.1624254
-0.1057182
-0.03561706
0.004795945
0.03381316
0.08214662
0.1022215
0.08412784
0.05513407
0.03898577
0.03746099
0.03519055
0.07083353
0.1265616
0.1531969
0.1712663
0.1595799
0.110578
0.0853797
0.07874517
0.07633358
0.09541898
0.1028126
0.09486274
0.06189955
-0.0005467877
-0.03925499
-0.08061879
-0.1412258
-0.1889968
-0.2244971
-0.2276833
-0.2047222
-0.19979
-0.2438395
-0.3018247
-0.2932749
-0.2211801
-0.07196556
0.1119287
0.155428
0.07702212
-0.01152375
-0.06409671
-0.003126594
0.1037055
0.1661603
0.2609314
0.3744497
0.4261664
0.360054
0.2753676
0.1728853
0.1028352
-0.002777428
-0.4545316
0.2134717
1.578778
1.020378
-0.1355755
-0.7134653
-1.379387
-1.48005
-0.9169574
-0.1800688
0.2445568
0.1278209
-0.09329867
-0.1460013
-0.1440288
-0.1677592
-0.1335651
-0.02103866
0.100214
0.201958
0.2856156
0.3301517
0.2798468
0.1614977
0.07532565
0.05195733
0.06789833
0.08348044
0.06978132
0.06836707
0.1030373
0.1059595
0.06778181
0.05718223
0.05937705
0.03095278
0.0004634814
-0.01975382
-0.03786693
-0.05495667
-0.06329425
-0.04185572
-0.003476115
0.03544174
0.05705319
0.02660694
-0.06245689
-0.06152614
0.04318805
-0.01733046
-0.1885673
-0.2655791
-0.2812953
-0.2224169
-0.06807037
0.08971426
0.1751234
0.1886538
0.181167
0.1712097
0.1260253
0.07033021
0.03090544
-0.02467372
-0.08748043
-0.110114
-0.07504793
-0.009860616
0.025372
-0.00391599
-0.05085749
-0.09489336
-0.1497883
-0.1659927
-0.1415711
-0.1054904
-0.04406193
0.03634959
0.1300312
0.2287382
0.2955976
0.2898927
0.1978531
0.05351474
-0.05421663
-0.0757874
-0.07380455
-0.07556725
-0.04635747
-0.0141326
-0.01154542
0.007584497
0.05573731
0.06032319
-0.005334089
-0.08586664
-0.1209662
-0.1334485
-0.1617867
-0.141614
-0.06979259
-0.02338158
0.01790238
0.05914729
0.064854
0.07565337
0.1024919
0.1239079
0.1370988
0.1531309
0.2072739
0.1915535
0.05007128
-0.05606689
-0.1320451
-0.235181
-0.3043818
-0.3264892
-0.2606931
-0.1755163
-0.18167
-0.2120832
-0.1786464
-0.06046289
0.04834292
0.08458452
0.09146399
0.07748961
0.01203512
-0.0399115
0.04117098
0.1673827
0.2182048
0.2177775
0.24139
0.2999099
0.3221778
0.3027123
0.2523376
0.2200602
0.2380793
0.2690711
0.3265663
0.331045
0.2043748
0.0882634
0.06502297
0.01999531
-0.06239026
-0.149992
-0.2788401
-0.4256665
-0.5720295
-0.6874316
-0.7442421
-0.7861547
-0.8275399
-0.7832918
-0.5938776
-0.3593571
-0.1915065
-0.08295585
0.03253636
0.1223417
0.1611187
0.2235802
0.2948464
0.385267
0.4671464
0.4439752
0.3537988
0.2270444
0.1510723
0.2172999
0.3494242
0.4677261
0.5127759
0.4903196
0.474587
0.5061651
0.5953876
0.7359551
0.9021
1.042667
1.19602
1.348748
1.377472
1.333269
1.210289
0.8956861
0.4330482
-0.2463531
-1.313455
-2.738458
-4.413369
-6.256347
-7.966486
-8.803112
-7.929389
-5.152031
-1.091317
3.240584
6.67108
8.401702
8.419685
6.978897
4.533208
1.949867
0.05134908
-0.9177766
-1.13533
-0.6622015
0.3878651
1.134608
0.8512722
0.4555217
0.4160057
-0.2089709
-1.276573
-1.932695
-1.965036
-1.475715
-0.7260231
-0.06919786
0.1741681
-0.08966331
-0.6951581
-1.153373
-0.8427185
0.3655495
2.029671
3.366173
3.797196
3.395015
2.376808
0.859894
-0.8399878
-2.385511
-3.650219
-4.479067
-4.632575
-4.137869
-3.336296
-2.472203
-1.696323
-1.140368
-0.6908389
-0.2290721
0.3878489
1.203543
1.933302
2.524585
2.986563
3.212641
3.260349
3.090208
2.67208
2.072931
1.349709
0.6181713
-0.03218455
-0.5509435
-0.8986229
-1.094566
-1.260975
-1.403941
-1.418053
-1.34498
-1.225331
-1.019431
-0.7345118
-0.4133159
-0.1088503
0.1103849
0.2544106
0.3488638
0.3893296
0.3831027
0.2999467
0.1901422
0.1288144
0.09817258
0.07986859
0.08864051
0.1210119
0.1342431
0.135202
0.09042007
-0.08086471
-0.2769146
-0.3839094
-0.4217501
-0.3947193
-0.3309242
-0.2481052
-0.1229327
0.01086272
0.1466247
0.2947456
0.399268
0.4224535
0.3498943
0.1917396
0.04887499
-0.001001236
-0.002934697
-0.02777396
-0.1018832
-0.216517
-0.3174961
-0.3414062
-0.292457
-0.190874
-0.06187912
0.05004795
0.1488727
0.2113825
0.2071166
0.1511526
0.05513609
0.002947106
0.0450775
0.08349427
0.07835864
0.05765363
0.01420671
0.0003517087
0.02799427
0.02539121
0.03379443
0.09802096
0.129388
0.1136428
0.09573211
0.06660993
0.04761356
0.02111034
-0.03151689
-0.04646709
-0.02950913
-0.03956592
-0.06633283
-0.08912846
-0.09755177
-0.09770939
-0.1213558
-0.1450511
-0.1557728
-0.1898722
-0.2236819
-0.1874426
-0.06970647
0.06390769
0.1562442
0.1946605
0.1881382
0.1720898
0.174707
0.1996008
0.2441981
0.2619956
0.2065174
0.1241806
0.06081009
0.01444681
-0.03558517
-0.1393213
-0.2618208
-0.3447022
-0.4126634
-0.451978
-0.426912
-0.3414402
-0.2197475
-0.1203927
-0.03046009
0.117061
0.2440125
0.2732142
0.260805
0.2329858
0.1799985
0.1291939
0.1443765
0.1916973
0.1457419
0.08003862
0.08511655
0.03749421
-0.05902289
-0.07972243
-0.05268595
-0.03097622
-0.005046813
0.002722238
-0.006985208
-0.007497554
-0.02953853
-0.07540524
-0.1055812
-0.1144614
-0.07880532
-0.006213744
0.03711906
0.05002292
0.08557393
0.1478296
0.1665556
0.1534828
0.1364568
0.06518336
0.0370462
0.05056173
-0.03978057
-0.1280701
-0.1305593
-0.1173434
-0.09103145
-0.1139471
-0.1824114
-0.1813075
-0.1769466
-0.199886
-0.1711926
-0.1480509
-0.1299881
-0.08748776
-0.07319384
-0.03363071
0.04280956
0.1402044
0.2619939
0.3008452
0.3069554
0.2975753
0.1747249
0.08557612
0.09174465
0.05496446
-0.08171374
-0.1872994
-0.1374368
-0.06774386
9.781284e-05
0.1053377
0.1192295
0.07740812
0.0009426397
-0.1114534
-0.1056703
-0.04121657
-0.06195677
-0.05663678
-0.02505013
-0.08617292
-0.1005602
-0.06246706
-0.09069529
-0.05645316
0.07199357
0.1352689
0.1182506
0.1474389
0.1716613
0.1185823
0.05119401
0.03471119
0.139627
0.1873544
0.05347427
-0.04953854
-0.09713708
-0.1533408
-0.1676244
-0.2085877
-0.2479862
-0.1145486
0.0810602
0.138551
0.1308918
0.1592257
0.2044903
0.1760443
0.06693874
-0.001014326
-0.08839998
-0.2073285
-0.2249083
-0.1994027
-0.07390089
-0.2512929
-1.039107
-1.359057
-1.118034
-1.033103
-0.1377637
1.479336
1.712431
0.6967337
0.2919132
0.7357783
1.699183
2.551526
2.334959
1.443609
0.6036143
-0.2682964
-1.205442
-1.989305
-2.53682
-2.718488
-2.408745
-1.77286
-1.069197
-0.5135249
-0.2451452
-0.1618302
-0.07476214
-0.02249264
-0.04454308
0.1144564
0.5410881
0.9799437
1.28771
1.458931
1.633479
1.765566
1.583343
1.26004
0.9487675
0.6166602
0.4488627
0.3792463
0.1671412
-0.2126476
-0.6149005
-0.8490428
-0.9332466
-0.9415872
-0.8875352
-0.8362017
-0.7759593
-0.6861516
-0.5638216
-0.4175736
-0.2945267
-0.226444
-0.2492798
-0.2862977
-0.2153099
-0.06079881
0.06385449
0.0809291
0.03648208
0.0184721
0.01386424
-0.03227707
-0.09123229
-0.07590006
0.04677021
0.2407856
0.4056788
0.4556108
0.4338596
0.3766272
0.2751092
0.1925464
0.1715072
0.17674
0.1689477
0.1228675
0.05905634
0.02932519
0.03859949
0.07651778
0.1090534
0.1009485
0.07020777
0.01429436
-0.04360817
-0.07390033
-0.1002073
-0.1280688
-0.1123245
-0.02926521
0.02794103
0.02150397
0.009979985
-0.002710485
-0.0184685
-0.03886392
-0.07893589
-0.1482475
-0.225035
-0.2565373
-0.2522047
-0.2502486
-0.2345808
-0.1925414
-0.1462588
-0.1204315
-0.1136604
-0.09258299
-0.04690588
0.01825604
0.1147226
0.2301297
0.3091323
0.3306548
0.3207986
0.2603216
0.158103
0.07057743
0.003713008
-0.03454244
-0.03353136
-0.023943
-0.03366818
-0.0314629
0.01562956
0.04400975
0.04236174
0.06078381
0.03904434
-0.02186046
-0.03643349
-0.02914564
-0.04092859
-0.06784258
-0.1005061
-0.09928885
-0.07159404
-0.05268898
0.00987622
0.09221371
0.08705235
0.03011829
-0.0207122
-0.04650744
0.01088633
0.1274283
0.1884553
0.1571745
0.1174825
0.08132076
0.01354042
-0.04333175
-0.09992893
-0.1820152
-0.2597145
-0.2966341
-0.2951893
-0.274609
-0.2286965
-0.1994007
-0.1673602
-0.09579907
-0.04710148
6.603971e-05
0.07935294
0.1365881
0.1445009
0.124685
0.151469
0.2387389
0.2886036
0.3106483
0.3451799
0.3329389
0.2652048
0.1989143
0.1684614
0.1243325
0.05194888
0.01731099
-0.0003759211
-0.05754581
-0.125218
-0.1809169
-0.2369897
-0.2569408
-0.2264877
-0.1680254
-0.1000411
-0.0719445
-0.09572817
-0.1380267
-0.1650243
-0.1494122
-0.1213558
-0.1138069
-0.1000331
-0.06709269
-0.0305685
-0.01083559
-0.02837318
-0.04439246
-0.03015643
-0.02408133
-0.02108312
0.003721019
0.02670176
0.02790162
0.02011185
0.02355001
0.07091073
0.1811576
0.28439
0.3028161
0.2554362
0.2028368
0.1771559
0.1567669
0.1223699
0.09179036
0.06334098
0.02134367
0.002214747
0.02464259
0.02698418
0.03043428
0.05716253
0.04660461
0.01857182
-0.02379211
-0.09481105
-0.1604724
-0.1978556
-0.2045018
-0.2254923
-0.2732166
-0.3173038
-0.3401393
-0.3251515
-0.2615458
-0.1568488
-0.05484971
0.0368077
0.1172758
0.1443581
0.1519355
0.1762697
0.1986331
0.2182379
0.211802
0.187152
0.1715656
0.1395927
0.104617
0.06476189
0.0035455
-0.02028522
-0.04366757
-0.09978741
-0.1008896
-0.08841681
-0.1005429
-0.06247441
-0.006291406
0.03344261
0.09072865
0.1198173
0.09017082
0.0529268
0.01136451
-0.01749725
0.002224197
-0.000723124
-0.0619883
-0.1279656
-0.1705852
-0.1826566
-0.1594569
-0.09298483
-0.01545539
0.0244805
0.06574887
0.1414434
0.1523477
0.07934932
0.05252932
0.04662645
-0.01965856
-0.06762788
-0.06435304
-0.06673714
-0.07757104
-0.07450356
-0.06052164
-0.04044528
-0.002066693
0.0517122
0.09027248
0.1007936
0.1116041
0.1227764
0.09702187
0.06718232
0.05243298
0.01553055
-0.0216594
-0.03961171
-0.03274452
0.002796961
0.007014624
-0.03238273
-0.08437504
-0.1386921
-0.1144214
-0.08195276
-0.1086248
-0.02665041
0.0946054
0.1378095
0.1592069
0.1536325
0.1633844
0.1855209
0.1587232
0.08499613
-0.03680922
-0.1683284
-0.2474227
-0.2630482
-0.2183593
-0.1418404
-0.09093707
-0.06918707
-0.05432875
-0.06027804
-0.07081574
-0.05679558
-0.04114528
-0.01686707
0.06635403
0.1706546
0.2104737
0.1980171
0.1740515
0.1339544
0.08590533
0.04634567
0.01048554
-0.02903385
-0.07090485
-0.09951153
-0.1016912
-0.1049528
-0.09871846
-0.0313548
0.06113654
0.1292208
0.1750771
0.2007124
0.2068451
0.1708075
0.09504476
0.02826437
-0.02766522
-0.08251138
-0.1386584
-0.229461
-0.313165
-0.3145793
-0.2570318
-0.1852467
-0.1191709
-0.06587728
-0.02459863
-0.004801106
0.005817516
0.01835536
0.03314289
0.04738706
0.04020283
0.03190282
0.06886938
0.1233304
0.1251927
0.09561191
0.08884604
0.06586499
0.01297224
-0.01172008
0.01821313
0.1124498
0.2438077
0.3306841
0.3784319
0.3899277
0.2724466
0.09000811
-0.03805246
-0.119127
-0.1817093
-0.2290496
-0.2285021
-0.2320509
-0.2739595
-0.2740422
-0.2236709
-0.1621611
-0.08680414
-0.01842949
-0.03505914
-0.1027995
-0.1348292
-0.1280423
-0.08789438
-0.03285583
0.0439059
0.1076544
0.1146221
0.1012172
0.07901266
0.07150701
0.07785615
0.06171248
0.05056626
0.02523996
-0.03986949
-0.05514042
-0.003024559
0.04729899
0.07157774
0.05103455
0.01261949
0.005809235
0.02240057
0.04097867
0.0609925
0.07380799
0.04794382
0.002874035
-0.01587259
-0.01744729
-0.009167987
-0.004094182
-0.003971172
0.0356125
0.07893201
0.07911609
0.07652793
0.07850916
0.05792538
0.009325297
-0.05082682
-0.1054135
-0.1347719
-0.1144569
-0.0894349
-0.1047155
-0.1169149
-0.1062013
-0.07796084
-0.04371068
-0.04220582
-0.02939127
0.01785072
0.05761177
0.07789056
0.06633905
0.06580145
0.09203029
0.1045047
0.1051158
0.09651277
0.08424072
0.06285258
0.0203813
0.03191583
0.1102986
0.1279241
0.07603715
0.008444243
-0.07941137
-0.1540003
-0.187399
-0.2011865
-0.2232185
-0.2302653
-0.2274345
-0.2327846
-0.1899609
-0.08423952
0.06481192
0.2007167
0.2205255
0.1599842
0.11712
0.06537279
0.001368016
-0.03467237
-0.03480537
0.03601762
0.1067877
0.08978396
0.04917277
0.0433248
0.06639774
0.08411823
0.09220485
0.1179342
0.1244081
0.08740012
0.07142941
0.08870636
0.1065308
0.1347786
0.1388644
0.1096764
0.03437313
-0.1144788
-0.2166069
-0.2665938
-0.3340863
-0.3229092
-0.2519589
-0.2014772
-0.1509709
-0.08760699
-0.003612327
0.02632697
-0.03746434
-0.09991897
-0.1520085
-0.2130328
-0.2548574
-0.2748267
-0.2568885
-0.2116016
-0.1678178
-0.1066491
-0.003492993
0.1272189
0.2448396
0.308673
0.3312836
0.388618
0.4999003
0.6064328
0.6404296
0.6069956
0.6131881
0.6598223
0.6685669
0.6646219
0.6931038
0.7914181
0.9343698
1.079197
1.213986
1.246635
1.183929
1.004813
0.5629748
-0.3097423
-1.909589
-4.127347
-6.286438
-7.866318
-8.59026
-7.913414
-5.492894
-1.892563
1.945965
5.113681
7.007627
7.535571
6.754234
4.991819
2.894882
1.232062
0.5949276
0.837684
1.555014
2.395736
2.782384
2.38978
1.3818
0.243644
-0.8218756
-2.02458
-3.356869
-4.822978
-6.138799
-6.583327
-5.935301
-4.421612
-2.293335
0.1692417
2.425898
3.842707
4.376287
4.402587
4.20401
3.91061
3.540275
2.984683
2.071976
0.9173961
-0.1785176
-1.146783
-1.947017
-2.466983
