0.1228695
0.4338005
0.3091064
0.1960801
0.1517693
0.1193647
0.1359093
0.1428977
0.1472361
0.09302534
-0.03370055
-0.2194519
-0.438004
-0.6222435
-0.7272524
-0.7417725
-0.6934634
-0.5980518
-0.4449716
-0.2580211
-0.067073
0.120569
0.2668274
0.3475209
0.374298
0.3484426
0.2925463
0.2187202
0.1251672
0.04844628
0.003038086
-0.02139326
-0.02294864
0.003800935
0.08263273
0.2126524
0.3426088
0.4357103
0.4716539
0.4409901
0.3542579
0.2222801
0.07819929
-0.03825055
-0.1070436
-0.1468368
-0.1888496
-0.2247461
-0.2613553
-0.3047698
-0.3423366
-0.3840431
-0.4160683
-0.434446
-0.4575784
-0.4768135
-0.4912587
-0.4851102
-0.4272187
-0.3152906
-0.1852505
-0.07103124
0.05023298
0.1908668
0.3194331
0.4157696
0.4962521
0.5860484
0.7035879
0.8580694
0.9946076
1.056783
1.030677
0.8907358
0.6428997
0.321361
-0.03107967
-0.3554163
-0.6112772
-0.776749
-0.8640268
-0.9011283
-0.8820806
-0.8105103
-0.7020134
-0.5424302
-0.3376017
-0.1269112
0.04836174
0.1647379
0.2326942
0.2653669
0.3030827
0.3873544
0.4890434
0.5695921
0.6228804
0.6489453
0.6242465
0.5194886
0.3261602
0.06058347
-0.2307277
-0.5054243
-0.7301424
-0.8917218
-0.9938696
-1.020358
-0.9682869
-0.8629174
-0.7290738
-0.5726732
-0.3835294
-0.1568168
0.09404583
0.3485675
0.5840798
0.762709
0.8566271
0.8727715
0.8369439
0.7662672
0.6675801
0.5625629
0.4752285
0.3970887
0.335261
0.3132299
0.279801
0.1925038
0.08134128
-0.05429139
-0.2199715
-0.3960955
-0.5850071
-0.7609854
-0.899049
-1.011231
-1.081581
-1.083253
-0.993104
-0.7876431
-0.4705717
-0.1163193
0.2000831
0.4843754
0.6911468
0.7720725
0.778887
0.7184218
0.5966938
0.5235888
0.5651927
0.7142416
0.9416345
1.120307
1.146515
0.9892018
0.699811
0.4187886
-0.04101308
-0.924962
-1.955849
-2.706638
-2.983902
-2.822073
-2.331795
-1.575279
-0.6389143
0.3441197
1.211746
1.849067
2.295518
2.653855
2.939384
3.07622
2.997097
2.69676
2.176636
1.440887
0.4988783
-0.6057057
-1.716723
-2.687332
-3.423245
-3.821509
-3.828108
-3.41813
-2.622967
-1.588601
-0.5648735
0.1625373
0.4636509
0.4235095
0.224947
0.01303522
-0.1982441
-0.4661185
-0.8044969
-1.173536
-1.472687
-1.392725
-0.6468191
0.6579448
2.243726
3.779916
5.031742
5.879703
5.989383
5.194868
3.783852
2.264784
1.073051
0.2671495
-0.3270662
-0.8524677
-1.296781
-1.567924
-1.72618
-1.938799
-2.334765
-2.989365
-3.855691
-4.70291
-5.264909
-5.365784
-4.932362
-4.04882
-2.882695
-1.571634
-0.2771984
0.8165269
1.604019
2.070352
2.314343
2.49659
2.687182
2.899775
3.130935
3.330979
3.43579
3.368474
3.085647
2.652567
2.191885
1.780963
1.415241
1.043567
0.6375019
0.1817325
-0.3358999
-0.891607
-1.448762
-1.9513
-2.336843
-2.576281
-2.657314
-2.590253
-2.396804
-2.096167
-1.731328
-1.345209
-0.9558669
-0.5730948
-0.2250437
0.05808331
0.2885613
0.4776392
0.6177717
0.7071529
0.7297219
0.685869
0.5835267
0.4178367
0.2312105
0.08594995
-0.005068038
-0.05872627
-0.07526244
-0.05064448
0.002942064
0.07746035
0.1583594
0.2293552
0.306227
0.3985948
0.46668
0.4613125
0.3869318
0.3049581
0.254033
0.2186265
0.2004032
0.2254327
0.2857137
0.3254932
0.2895231
0.2112899
0.1571456
0.1109808
0.06310883
0.01870524
-0.05997172
-0.1723981
-0.2778346
-0.3335895
-0.3267268
-0.284566
-0.2072199
-0.08070878
0.02026895
-0.006682858
-0.1462119
-0.3273771
-0.5100533
-0.6509004
-0.6919799
-0.5948635
-0.3847528
-0.1455628
0.08172479
0.3151275
0.5411434
0.7062247
0.7216034
0.5420505
0.2552062
-0.01672492
-0.2191309
-0.3484792
-0.394335
-0.3664736
-0.2939976
-0.1578852
0.05466408
0.3381695
0.6299837
0.7823758
0.7243956
0.4657428
0.08740263
-0.2546789
-0.4876831
-0.6136454
-0.6415654
-0.5767243
-0.4314561
-0.260595
-0.1003222
0.07446644
0.2838089
0.4706892
0.5505484
0.4919091
0.3171061
0.07228252
-0.2000623
-0.4414495
-0.5759119
-0.5551002
-0.3975139
-0.1588546
0.1348552
0.4304272
0.6357334
0.7221541
0.686355
0.5027093
0.201731
-0.1269489
-0.4092138
-0.595419
-0.6627014
-0.6372585
-0.5499538
-0.4168684
-0.2683019
-0.1387438
-0.06578415
-0.05053178
-0.02105344
0.08407211
0.2625908
0.4592352
0.6066877
0.6813962
0.6654193
0.5439052
0.3546479
0.1523624
-0.0240913
-0.1365677
-0.1522541
-0.08546729
0.002589613
0.0599987
0.06663664
0.03418539
-0.009774706
-0.04024744
-0.04100091
-0.03535849
-0.04863806
-0.06565675
-0.07103627
-0.063412
-0.05691891
-0.07916177
-0.1399231
-0.2226661
-0.3214921
-0.4282528
-0.5058434
-0.522378
-0.4727996
-0.3757135
-0.2383228
-0.06831012
0.1012643
0.2325586
0.2864846
0.2628064
0.1970502
0.09811137
-0.03179295
-0.1428838
-0.1862451
-0.1549566
-0.04973272
0.07704183
0.1742535
0.2320911
0.2479661
0.2814857
0.2829813
0.219905
0.1889043
0.2108268
0.2742773
0.1550925
-0.02596138
0.2010633
0.5266338
0.5842892
0.5586928
0.5177418
0.4123833
0.228752
-0.01815564
-0.283192
-0.5299355
-0.7476742
-0.903352
-0.956586
-0.9214441
-0.7945923
-0.5926085
-0.3710542
-0.1733821
-0.05057811
-0.01882708
-0.03803887
-0.04466842
0.0183947
0.1607731
0.3385589
0.502678
0.6107692
0.6289862
0.5784765
0.5119382
0.4648857
0.4359764
0.4149284
0.427227
0.4608948
0.4562915
0.3914796
0.2687031
0.07887524
-0.1625178
-0.4051629
-0.613019
-0.7690198
-0.862278
-0.8842621
-0.8497409
-0.7710286
-0.6304205
-0.461202
-0.2951279
-0.1401205
-0.04823329
-0.007880828
0.04530733
0.1210548
0.2182755
0.3242907
0.3940381
0.4028636
0.3510838
0.2531253
0.146642
0.06832622
0.01874347
-0.01384715
-0.02764163
-0.03237965
-0.0228826
0.01816754
0.08506186
0.1641027
0.235634
0.2885873
0.3229277
0.347805
0.376007
0.4073662
0.433714
0.4235695
0.3456214
0.2232221
0.1119641
0.04788057
0.03254359
0.02310801
-0.03158251
-0.1300228
-0.2335561
-0.3192305
-0.3929714
-0.4567644
-0.4929308
-0.5222183
-0.5224136
-0.4727441
-0.4870141
-0.5360344
-0.7943643
-1.793732
-3.286994
-4.169204
-4.028134
-3.198326
-1.137905
2.353114
5.623723
7.420961
7.868085
7.34726
6.120091
4.214643
1.97146
0.09425803
-1.35561
-2.73382
-3.951466
-4.760912
-5.140474
-5.132234
-4.899334
-4.595945
-4.115492
-3.353925
-2.303135
-0.987185
0.4279546
1.756474
2.898018
3.773666
4.351115
4.639156
4.618002
4.278277
3.662331
2.802172
1.748604
0.651229
-0.3417303
-1.175575
-1.842713
-2.339801
-2.652043
-2.791021
-2.787625
-2.643783
-2.350387
-1.92149
-1.42366
-0.9402696
-0.5115048
-0.1407698
0.184859
0.496892
0.8013265
1.038509
1.149747
1.139687
1.042012
0.880578
0.6998922
0.5316607
0.3748447
0.2763103
0.2752572
0.3527977
0.4774439
0.5885934
0.63727
0.6312389
0.5838233
0.4677459
0.2818388
0.1012172
-0.03551741
-0.1377172
-0.220537
-0.3175619
-0.4211406
-0.522504
-0.6274093
-0.7101098
-0.7628276
-0.7808061
-0.7616301
-0.7334089
-0.7063394
-0.6544776
-0.5549502
-0.4213579
-0.2783861
-0.1285124
0.02597776
0.1766004
0.3065571
0.3924421
0.4428711
0.4747551
0.4953556
0.5019337
0.4759115
0.4227759
0.356896
0.2790571
0.1973934
0.1375913
0.1072045
0.08958597
0.08526767
0.09244268
0.1121619
0.1427072
0.1544987
0.1504346
0.1672441
0.1958888
0.1899515
0.1348512
0.05124555
-0.02152046
-0.06518748
-0.1108181
-0.1760016
-0.2520309
-0.3180417
-0.3486816
-0.3393308
-0.2996092
-0.2424541
-0.166597
-0.0886083
-0.04402332
-0.05082362
-0.1110025
-0.1904934
-0.247148
-0.2479934
-0.1834839
-0.09044614
0.006398228
0.09814496
0.1635216
0.1743178
0.1157677
0.02489745
-0.05319665
-0.1199314
-0.1743593
-0.1914609
-0.1609158
-0.07270955
0.06655324
0.2164559
0.3622532
0.4995155
0.6092424
0.6657065
0.6357609
0.49859
0.2503954
-0.05634979
-0.3460274
-0.5825873
-0.727187
-0.7617583
-0.7100972
-0.594984
-0.4497704
-0.3057466
-0.1741019
-0.06153251
0.05086035
0.1769963
0.2925419
0.3831761
0.4576358
0.5142231
0.5461018
0.5586587
0.5424718
0.4898366
0.3963661
0.2650914
0.1457465
0.07326732
0.04765472
0.05266716
0.05624085
0.04290194
0.01367762
-0.01828986
-0.05611702
-0.1206558
-0.2044037
-0.2969235
-0.3910575
-0.4685037
-0.5269976
-0.5452026
-0.4990855
-0.4284315
-0.3601255
-0.2866803
-0.2310179
-0.196289
-0.178047
-0.1941192
-0.2122009
-0.1910969
-0.1483566
-0.08699475
0.01479033
0.133256
0.2508749
0.3645328
0.4580781
0.5400712
0.6006532
0.6289812
0.6467527
0.6521916
0.6266574
0.573509
0.5319886
0.5293145
0.5234019
0.4417813
0.2551841
-0.007201408
-0.2942733
-0.5521605
-0.7532392
-0.8824258
-0.9344249
-0.9476823
-0.9243389
-0.8534554
-0.7649431
-0.6610263
-0.5395968
-0.4183131
-0.3191894
-0.2575934
-0.218113
-0.1675449
-0.07985321
0.02677823
0.1254525
0.2309172
0.350022
0.4753819
0.5932114
0.6814451
0.7414401
0.7788575
0.7950547
0.7992117
0.786113
0.7415354
0.6599673
0.5519354
0.4491636
0.3773648
0.3291993
0.2786231
0.2193207
0.1578133
0.08024099
-0.02679644
-0.160497
-0.3173035
-0.4994889
-0.6999574
-0.8679654
-0.9582165
-0.9821571
-0.9423027
-0.8348901
-0.6884997
-0.5397362
-0.4126102
-0.3089012
-0.2344705
-0.1902553
-0.1592168
-0.1298171
-0.09655961
-0.05838126
-0.001236717
0.08329777
0.1724321
0.2450316
0.304327
0.3689297
0.4364644
0.4915823
0.5417405
0.5816153
0.595425
0.5873494
0.5560135
0.4923747
0.3973417
0.2806299
0.1458265
0.01110173
-0.09942582
-0.1906577
-0.2490963
-0.2762016
-0.3133904
-0.3512059
-0.3716038
-0.3919424
-0.4013707
-0.3745874
-0.314588
-0.2404522
-0.1558729
-0.06767261
-0.009127385
0.006797791
0.01240379
0.02510057
0.0372223
0.07518147
0.1594408
0.2726903
0.3840607
0.4504227
0.4591262
0.439081
0.4197197
0.4148725
0.3858521
0.2464391
-0.0104808
-0.2918414
-0.5044511
-0.6076653
-0.6078939
-0.5200557
-0.384938
-0.2471071
-0.1183104
-0.002724483
0.1034886
0.1905087
0.2321211
0.2207097
0.1622065
0.06735728
-0.05053943
-0.1829569
-0.3058654
-0.3830853
-0.3976828
-0.3674915
-0.3256232
-0.2726663
-0.1992175
-0.1303415
-0.09200515
-0.06646918
-0.01676407
0.06982494
0.1892816
0.3274386
0.4631684
0.5731183
0.6187061
0.5828099
0.5004745
0.4114974
0.3308607
0.2568921
0.1939845
0.1644664
0.1597293
0.1594607
0.1725311
0.1894198
0.1833785
0.1135863
-0.05012283
-0.2597364
-0.4474332
-0.5809326
-0.6367331
-0.6187433
-0.556437
-0.4723836
-0.3843501
-0.3089678
-0.2545246
-0.2029079
-0.1457219
-0.09984469
-0.06052557
-0.02652036
0.0009785249
0.0295961
0.05417123
0.09457166
0.1667061
0.2375413
0.2834818
0.3114772
0.3358671
0.381385
0.4554724
0.5325096
0.58239
0.5766427
0.5099417
0.4144903
0.2899392
0.1097513
-0.09758691
-0.3030966
-0.4927311
-0.6316971
-0.7144232
-0.7539941
-0.7705634
-0.7791054
-0.7793783
-0.7639936
-0.689204
-0.5386393
-0.3399417
-0.1226996
0.07261682
0.2347624
0.3813602
0.515736
0.6281214
0.7066184
0.7505223
0.7987116
0.870754
0.9121403
0.8762667
0.7605466
0.5800802
0.3463432
0.08217085
-0.1735961
-0.4009466
-0.584752
-0.7193373
-0.8003575
-0.8202836
-0.7897465
-0.7206444
-0.6259521
-0.5069407
-0.3481471
-0.1663029
0.0002715857
0.1605088
0.3387684
0.5072801
0.6152045
0.642307
0.5990673
0.4954413
0.3648019
0.2546603
0.1768479
0.1466262
0.1587332
0.1767317
0.1917112
0.1802012
0.1104106
-0.01406955
-0.1826532
-0.3704076
-0.529458
-0.6461387
-0.7191604
-0.7111147
-0.6174498
-0.483785
-0.3631956
-0.2879139
-0.2360974
-0.1842334
-0.1510296
-0.1223954
-0.05652079
0.007514019
0.03622034
0.1044503
0.2269007
0.3333569
0.4346475
0.5480064
0.6321584
0.7031122
0.7627338
0.7348113
0.6373171
0.5450404
0.4251421
0.272703
0.1447449
0.003519545
-0.1671014
-0.3065393
-0.4012628
-0.4579383
-0.4906623
-0.5144278
-0.5104777
-0.4452025
-0.3119378
-0.1822651
-0.1132082
-0.06921388
-0.02876734
-0.02045156
-0.07458545
-0.182522
-0.2912014
-0.3690321
-0.4078746
-0.3760543
-0.2688201
-0.1272332
0.04820053
0.2299248
0.3368583
0.3741328
0.3767332
0.3742375
0.4077159
0.4483543
0.4710187
0.4735208
0.428017
0.3608868
0.3045654
0.2510854
0.1716642
0.01386617
-0.1820125
-0.3430493
-0.4716795
-0.5234078
-0.4883185
-0.4741269
-0.4502758
-0.3236692
-0.18813
-0.113577
-0.04196531
0.0685618
0.1570957
0.1822293
0.1723335
0.09148258
0.09289042
0.1684355
0.1214708
0.1853223
0.2671465
0.2706147
0.4558031
0.4588766
0.09950698
-0.2932808
-0.5827096
-0.7507397
-0.7667192
-0.5265833
-0.1918222
-0.01061963
0.1158466
0.2278756
0.2288249
0.1896519
0.1610337
0.1307541
0.1845087
0.3110376
0.43003
0.4863438
0.4586534
0.3871142
0.2957481
0.2476926
0.1579598
-0.123343
-0.4784271
-0.767306
-0.8977393
-0.7708934
-0.5504243
-0.4539967
-0.3979619
-0.2848965
-0.1333164
0.03850062
0.1862775
0.3328198
0.5156828
0.6484345
0.5570565
0.3290184
0.2224769
0.1495587
0.03346762
-0.002690195
0.004093457
-0.008633891
0.01426187
0.07838651
0.09613007
0.07506565
0.08576716
0.05247369
-0.08235945
-0.1905849
-0.2271897
-0.2462046
-0.2351784
-0.2342312
-0.224703
-0.1016979
0.03223237
0.02265855
-0.06940948
-0.1831128
-0.2444473
-0.1625934
-0.06760862
-0.03532213
-0.04358925
-0.1146398
-0.1161563
0.003908223
0.1148561
0.2230225
0.3521501
0.4501909
0.5030812
0.5018331
0.4625728
0.3645248
0.1808679
-0.03423166
-0.2045506
-0.2030404
-0.06331918
-0.1086451
-0.3371744
-0.3157181
-0.007887187
0.1974073
0.167667
0.07551312
0.02949329
0.01323642
-0.02679215
-0.1299372
-0.2236244
-0.2707253
-0.3385319
-0.4153902
-0.4531764
-0.450422
-0.4480216
-0.4527572
-0.3733895
-0.1729871
0.07219411
0.2308221
0.2373969
0.2270776
0.34636
0.4784987
0.5144452
0.5321019
0.468162
0.340475
0.3324605
0.4451827
0.4952191
0.3893707
0.3669556
0.4551115
0.3666043
0.1458647
0.017697
-0.0301902
-0.1274759
-0.2562266
-0.3450985
-0.4514318
-0.6606088
-0.8154811
-0.7908429
-0.7746081
-0.7775202
-0.6992056
-0.542806
-0.2437952
0.03415737
0.07779533
0.04546577
0.1880904
0.4512746
0.4742446
0.2479812
0.09481185
0.05074788
0.01044819
-0.03731974
0.0229951
0.09411027
0.003541291
-0.01047621
0.132901
0.151151
0.1241062
0.2642086
0.3250277
0.216623
0.1414558
0.1609749
0.1751803
0.09202875
0.05392315
0.08163913
0.1357009
0.206933
0.199465
0.3019858
0.4669895
0.3910351
0.2492592
0.1489778
-0.05256693
-0.2924565
-0.5034699
-0.6161661
-0.6496601
-0.7525217
-0.8664585
-0.9510311
-0.9059258
-0.6325946
-0.4364643
-0.3374661
-0.1209934
0.01299341
0.09755997
0.4073088
0.7474166
0.920065
1.062073
1.142426
1.110628
1.079431
1.004826
0.9619557
1.037493
0.9164692
0.5800787
0.3230019
-0.06740603
-0.8938435
-1.822588
-2.38128
-2.614922
-2.526267
-1.981844
-1.307064
-0.6936079
0.007862316
0.7197578
1.264667
1.56071
1.650013
1.623017
1.467075
1.228672
1.024433
0.9660302
0.9732617
0.6977521
0.2358194
-0.1131042
-0.5532198
-1.214067
-1.81686
-2.064217
-1.9417
-1.597073
-1.248604
-1.092821
-0.985303
-0.7670603
-0.7282627
-1.020683
-1.227891
-1.310987
-1.340915
-0.6565529
0.9745838
2.871788
4.307964
5.022863
5.138215
4.790907
4.035648
2.906708
1.498544
0.08219391
-0.9686989
-1.494516
-1.557432
-1.356764
-1.104925
-0.9028672
-1.023576
-1.572832
-2.207511
-2.750678
-3.233281
-3.525145
-3.641051
-3.667451
-3.321289
-2.632373
-1.977547
-1.325469
-0.6377524
0.02616093
0.7575699
1.622964
2.467667
3.006942
3.398405
3.787589
3.867777
3.632282
3.238588
2.663612
2.13908
1.811577
1.386227
0.7868444
0.1852024
-0.3813992
-0.8430822
-1.172042
-1.408152
-1.578839
-1.830356
-2.122149
-2.269178
-2.11128
-1.590781
-1.130137
-0.8250579
-0.458635
-0.2777107
-0.2310538
-0.0367139
0.2051875
0.3817806
0.5291097
0.6733151
0.8332497
0.872858
0.7216552
0.6998597
0.7475817
0.5056841
0.2406361
0.1286453
-0.06365225
-0.3658384
-0.6051329
-0.6061416
-0.6172126
-0.7137173
-0.6101499
-0.5174243
-0.4834176
-0.2622387
-0.04563683
-0.04682849
-0.0790083
-0.01427335
0.0345868
0.1122082
0.2319136
0.3257185
0.4988846
0.7236205
0.7699585
0.5401238
0.2156743
0.06774539
0.1334058
0.1894934
-0.01740674
-0.3298361
-0.3611945
-0.3381778
-0.4624433
-0.3940382
-0.2021236
-0.0754661
0.1211242
0.2841671
0.2596567
0.1263235
-0.04425025
-0.1765221
-0.072914
0.2086886
0.3198076
0.3802477
0.4894304
0.3198182
0.190007
0.3556589
0.2437888
-0.05846939
-0.1776669
-0.3318843
-0.316823
-0.157772
-0.2900892
-0.4205999
-0.357807
-0.3421623
-0.3786622
-0.3773207
-0.31056
-0.2321242
-0.1870308
-0.05435171
0.2282543
0.4633713
0.4995324
0.4430894
0.3676638
0.1132868
-0.2538709
-0.3867925
-0.2365763
0.008800823
0.09912676
0.1241508
0.3726167
0.5122228
0.3502643
0.2108017
0.2486381
0.3869003
0.3688633
0.1819574
0.01146407
-0.143555
-0.1508057
0.01400998
0.06412806
-0.01262979
-0.01003964
0.03441156
0.05630309
-0.03407423
-0.3597473
-0.5483933
-0.3910309
-0.3310665
-0.4858439
-0.6461845
-0.7269756
-0.618897
-0.486291
-0.5332916
-0.5109683
-0.3658892
-0.2875676
-0.1040564
0.2091976
0.4060445
0.4821114
0.5546846
0.7248607
0.7595954
0.511552
0.4492033
0.6042798
0.6328974
0.5646455
0.4000734
0.1729644
0.09897282
0.1887153
0.1894152
0.014914
-0.1431046
-0.2759845
-0.3918572
-0.3178931
-0.2325327
-0.3354054
-0.4753156
-0.5345403
-0.4451952
-0.3125198
-0.2562135
-0.1686723
-0.1283552
-0.1721122
-0.01881511
0.2240972
0.2449145
0.3276795
0.5690496
0.5973815
0.5627572
0.6570222
0.6367172
0.5241254
0.4747788
0.4057853
0.1759198
-0.2527636
-0.6113899
-0.6167496
-0.5354551
-0.7110946
-0.8824892
-0.6895676
-0.3869569
-0.3471213
-0.3989087
-0.3414471
-0.2585345
-0.2412826
-0.275313
-0.1762887
0.08557241
0.2852302
0.2880517
0.2282487
0.3386407
0.5098751
0.4648156
0.2331909
0.05008364
0.01117684
0.01683429
0.02486854
0.1050419
0.2238193
0.2755874
0.317929
0.4155131
0.4963959
0.4890882
0.2906578
0.003520018
-0.07556733
-0.05778494
-0.206945
-0.3853922
-0.4182568
-0.3901859
-0.3648433
-0.2806519
-0.2084124
-0.2506276
-0.2820027
-0.2070912
-0.1088091
-0.04869675
-0.008790511
0.04809121
0.07377842
0.02398296
0.08800695
0.2837602
0.298325
0.1546085
0.08053986
0.05100216
0.0187642
0.04596411
0.1573135
0.2194955
0.1422977
0.03364655
0.03463866
0.1907024
0.2301134
-0.02092456
-0.2047679
-0.2079622
-0.2526875
-0.2867259
-0.2433507
-0.2305213
-0.2769147
-0.2748519
-0.1916015
-0.1132791
-0.0270922
0.1139331
0.2364418
0.2873954
0.3165541
0.2944875
0.2166601
0.2186933
0.2414897
0.1829886
0.1676008
0.201189
0.1709238
0.1236292
0.1219615
0.1252181
0.09219784
0.03918728
0.0282769
0.05027366
0.01485878
-0.1160678
-0.2680658
-0.341133
-0.343056
-0.2743644
-0.1659491
-0.08398753
-0.09198517
-0.665992
-2.12077
-3.509901
-3.849611
-3.486053
-2.247477
0.5576797
3.813099
6.069128
6.991842
6.633829
5.39864
3.466298
1.027469
-1.122939
-2.666175
-3.863139
-4.622217
-4.690365
-4.203843
-3.484988
-2.721728
-2.043293
-1.385704
-0.5491452
0.3967229
1.227811
1.830569
2.212548
2.435465
2.542453
2.600661
2.570357
2.268574
1.763903
1.309962
0.8939534
0.3457506
-0.3084289
-0.9226646
-1.478908
-1.972719
-2.313009
-2.463483
-2.409613
-2.167152
-1.792226
-1.215873
-0.3776537
0.5861598
1.480263
2.16739
2.558824
2.638238
2.456503
2.067547
1.516034
0.8504713
0.1251543
-0.5767218
-1.14005
-1.480328
-1.598557
-1.537768
-1.358699
-1.159499
-0.9920666
-0.8407472
-0.6804615
-0.4819924
-0.2816279
-0.1571187
-0.1105471
-0.09958171
-0.0687159
0.03016535
0.1604518
0.247802
0.2670766
0.2486355
0.2376105
0.2366744
0.2424211
0.2839716
0.3853129
0.5147744
0.5688169
0.5188375
0.4657925
0.4694746
0.4978548
0.5028537
0.4796278
0.4241674
0.3234864
0.2138939
0.1129565
-0.002370704
-0.1504611
-0.3183776
-0.4507803
-0.5103022
-0.5223765
-0.5285836
-0.5229666
-0.4787107
-0.4124025
-0.3623236
-0.3157521
-0.2408165
-0.1434977
-0.03947535
0.05945421
0.1328126
0.161932
0.1672604
0.1823153
0.2003639
0.2032752
0.1893814
0.1587327
0.1104583
0.06515709
0.04150806
0.04905859
0.09242708
0.1511766
0.2423163
0.3625058
0.4385954
0.4444362
0.3743134
0.2326374
0.07907756
-0.04444095
-0.1353251
-0.1863037
-0.2046381
-0.2499403
-0.3354716
-0.4053452
-0.4485945
-0.4762994
-0.4746961
-0.4218306
-0.3314979
-0.2491927
-0.1889772
-0.1437891
-0.1160908
-0.08701637
-0.02369092
0.07126161
0.1656518
0.2034107
0.1705966
0.1139237
0.05251174
-0.00183373
-0.02274883
-0.009614414
0.01533298
0.0353118
0.05369806
0.07625496
0.07067183
0.02495019
-0.003160113
0.02570939
0.1146868
0.2437971
0.3679135
0.4651129
0.5292659
0.556376
0.5644229
0.5570548
0.5113814
0.4387802
0.3593
0.2619732
0.1371697
-0.02335873
-0.2048373
-0.3799059
-0.5355594
-0.6613792
-0.7613221
-0.8330905
-0.8740909
-0.8799586
-0.8365982
-0.742566
-0.6164936
-0.4686216
-0.3002532
-0.1143301
0.07890344
0.2160429
0.3545237
0.4168558
0.4019208
0.7168761
1.008278
0.8230267
0.6032466
0.4813455
0.2999353
0.127008
0.03919234
0.04962534
0.08602009
0.1263973
0.1891695
0.227517
0.2288437
0.229391
0.2074295
0.1404309
0.04600977
-0.06870438
-0.1980545
-0.3402156
-0.4759452
-0.5606824
-0.5750275
-0.5532613
-0.5384213
-0.5211797
-0.4911839
-0.4631927
-0.4273335
-0.3622258
-0.2790301
-0.2005664
-0.1102165
-0.00588981
0.08709668
0.1771544
0.2496163
0.2483789
0.1955678
0.2004767
0.3133943
0.4426966
0.4528795
0.3793104
0.3758292
0.4659901
0.563579
0.5808334
0.4822553
0.3094465
0.1322155
0.0054272
-0.05773414
-0.06746782
-0.05278877
-0.0492612
-0.07750625
-0.1669068
-0.3147767
-0.4780046
-0.6164432
-0.7065608
-0.7418455
-0.7019899
-0.5836079
-0.4074008
-0.1819836
0.06454885
0.2886085
0.455937
0.5596732
0.6251854
0.6691149
0.6786005
0.6362149
0.5376662
0.3852504
0.2055541
0.03850544
-0.0872733
-0.1685199
-0.2255298
-0.2474972
-0.2270456
-0.1955374
-0.1651424
-0.1227326
-0.0727312
-0.05311042
-0.08773702
-0.153788
-0.2255599
-0.2970354
-0.3620854
-0.4201318
-0.4678041
-0.4984001
-0.5090203
-0.4935999
-0.4456238
-0.3509834
-0.2174031
-0.06010671
0.109635
0.2532937
0.3670288
0.4711232
0.5557346
0.6301135
0.7024561
0.7593639
0.7955142
0.7700521
0.6426552
0.4399129
0.2108813
0.004968925
-0.1351762
-0.2090108
-0.2420945
-0.2424924
-0.2322303
-0.2509166
-0.298076
-0.3553097
-0.4049361
-0.4285496
-0.4337083
-0.4359011
-0.4063713
-0.3152072
-0.1879064
-0.0308996
0.1454333
0.2836961
0.3677627
0.4119989
0.4161584
0.3988577
0.3814035
0.3582402
0.3439802
0.3543522
0.3513072
0.2907849
0.1674262
-0.008487366
-0.2296681
-0.4585313
-0.6420059
-0.765539
-0.8323871
-0.8303015
-0.7523651
-0.6223711
-0.4648795
-0.3045571
-0.1660743
-0.03989485
0.07944404
0.1914608
0.2917533
0.3620633
0.3994841
0.4023403
0.3929238
0.4005378
0.4222714
0.452814
0.4809912
0.4952964
0.4917852
0.4585616
0.3944442
0.311845
0.2164929
0.1308431
0.06587875
-0.0076865
-0.09887787
-0.2040492
-0.3025616
-0.3585044
-0.3837627
-0.3942543
-0.3830206
-0.3511975
-0.3102463
-0.2829147
-0.2869863
-0.323706
-0.3765602
-0.4202634
-0.4168985
-0.3393062
-0.2090619
-0.04555808
0.1341448
0.2941782
0.4292375
0.5235892
0.5390803
0.4999286
0.4380566
0.3584928
0.2853761
0.1922487
0.04442426
-0.1065808
-0.1998053
-0.2300858
-0.2185467
-0.1897684
-0.1563489
-0.1063793
-0.04615301
-0.001568901
0.005338524
-0.0231846
-0.05223695
-0.07245383
-0.08763672
-0.09211756
-0.09014868
-0.08551221
-0.08232462
-0.07147902
-0.03334677
0.02950758
0.08146497
0.1026903
0.1151722
0.1168422
0.08831041
0.04860017
0.01241119
-0.02227165
-0.01083338
0.05466788
0.1029083
0.1157312
0.1045459
0.077316
0.05458093
0.05143724
0.1116067
0.235344
0.3847078
0.5337167
0.616613
0.5815157
0.4283387
0.2017943
-0.04746489
-0.2950251
-0.4884647
-0.6030338
-0.6568282
-0.6507412
-0.6086122
-0.5561835
-0.5158009
-0.5042833
-0.4837913
-0.4366179
-0.3754655
-0.2940086
-0.2074622
-0.1257197
-0.04349188
0.01520411
0.0464921
0.07107027
0.1047615
0.1618601
0.2174349
0.2614198
0.3162341
0.3790044
0.4616216
0.5663424
0.6651965
0.7211176
0.7007802
0.6345562
0.5627323
0.5036489
0.476876
0.4613727
0.4237318
0.3315153
0.1604778
-0.07415608
-0.3477054
-0.6230234
-0.8503904
-1.003198
-1.061888
-1.025261
-0.9302514
-0.7870278
-0.6017768
-0.41921
-0.2642247
-0.1465617
-0.0698673
-0.01649508
0.02595155
0.06451003
0.11335
0.1776113
0.266684
0.3872752
0.5178578
0.6475
0.7589244
0.827768
0.8629532
0.8607057
0.8091074
0.7210662
0.6004406
0.4381068
0.2503221
0.05547577
-0.1388391
-0.2960396
-0.4204797
-0.553057
-0.6898975
-0.8110332
-0.893019
-0.9279931
-0.8998673
-0.8047887
-0.6831451
-0.5508011
-0.4350655
-0.3549595
-0.2892505
-0.2282683
-0.1502585
-0.04057316
0.09643015
0.2574363
0.4187865
0.5540958
0.6398616
0.6727488
0.6865627
0.691003
0.6604874
0.5823749
0.4565597
0.289224
0.1102579
-0.06644245
-0.2440203
-0.3966066
-0.5123901
-0.5940154
-0.6290374
-0.62444
-0.5879987
-0.5212792
-0.4244056
-0.2741219
-0.08295193
0.1090098
0.29123
0.470191
0.6316332
0.756103
0.8849398
1.032086
1.167605
1.273753
1.320579
1.289637
1.148857
0.9117472
0.6063528
0.2085575
-0.2401396
-0.6994097
-1.175219
-1.650953
-2.155367
-2.716433
-3.157186
-3.211494
-2.837083
-2.140831
-1.235325
-0.2585213
0.679199
1.470247
2.006693
2.251864
2.243276
2.122501
1.986175
1.788236
1.564191
1.368828
1.151762
0.9145029
0.6646656
0.3382128
-0.1091193
-0.6176729
-1.093184
-1.554075
-1.951513
-2.130828
-2.061216
-1.822226
-1.527744
-1.215227
-0.9970029
-1.070765
-1.273484
-1.123935
-0.2769299
1.059246
2.214058
2.691581
2.576437
2.31931
2.163007
2.05874
1.900707
1.580787
1.121747
0.6941818
0.4567434
0.4340076
0.4986093
0.4959149
0.3051302
-0.1419448
-0.810564
-1.594212
-2.343882
-2.953153
-3.392921
-3.613253
-3.590776
-3.367774
-2.994922
-2.518618
-1.93736
-1.230615
-0.4336709
0.3945811
1.200412
1.927058
2.536773
3.016981
3.338722
3.468817
3.403513
3.162094
2.81099
2.386301
1.869981
1.313026
0.7657625
0.2482639
-0.1802845
-0.5242188
-0.8341135
-1.100837
-1.330039
-1.542954
-1.698514
-1.767345
-1.772742
-1.728921
-1.612826
-1.393844
-1.080359
-0.7132618
-0.3569175
-0.06458936
0.1678959
0.3535079
0.5022011
0.6301085
0.7390389
0.8223103
0.8387102
0.756933
0.604071
0.4113682
0.2126242
0.03850226
-0.09422234
-0.1695072
-0.2015277
-0.2052108
-0.1860259
-0.1512197
-0.09245196
-0.0227193
0.04607401
0.1176912
0.176494
0.2201729
0.2461651
0.2122588
0.09676819
-0.07069454
-0.2636259
-0.4517581
-0.6004198
-0.6908339
-0.7064465
-0.6511542
-0.5356839
-0.3819131
-0.2119222
-0.02442444
0.1600444
0.2964975
0.3529199
0.3437986
0.2897647
0.2052249
0.1339162
0.1160909
0.1924215
0.3538133
0.5204891
0.6316345
0.6329901
0.5158008
0.3528841
0.1751245
-0.01139058
-0.1450469
-0.1749532
-0.1109826
-0.007837447
0.08112443
0.1320457
0.1349914
0.09705715
0.02652351
-0.06309626
-0.1397838
-0.2078917
-0.2642374
-0.2973424
-0.3515382
-0.3827073
-0.2904124
-0.1128666
0.06052376
0.1900472
0.2592854
0.2636586
0.2195427
0.157428
0.07910505
-0.01912655
-0.1483578
-0.3087
-0.4293811
-0.4825223
-0.4894689
-0.4391078
-0.3587218
-0.2806229
-0.1930258
-0.09610245
0.004809799
0.1107684
0.2104403
0.2883208
0.3167142
0.2844622
0.2487982
0.2365061
0.2057485
0.1516646
0.099448
0.06480769
0.02486948
-0.04068455
-0.107637
-0.1300624
-0.1164944
-0.1088429
-0.07254592
-0.0625295
-0.007294735
-0.01219964
-0.2642762
-0.05297663
0.7831445
1.416568
1.502019
1.025488
0.2129878
-0.5094435
-0.8434724
-0.7377914
-0.4119933
-0.0556178
0.2413712
0.412863
0.4094791
0.2034151
-0.1323084
-0.4612116
-0.7186813
-0.8929116
-0.9796531
-1.015699
-1.025252
-0.9760625
-0.8495826
-0.6741496
-0.4717565
-0.2348231
0.04063754
0.3208466
0.5798475
0.8103384
0.9546276
0.9897419
0.9915887
0.9924398
0.961474
0.9036589
0.8340368
0.7568706
0.6640528
0.5150273
0.3073286
0.07615326
-0.1704921
-0.3893592
-0.5290653
-0.6114962
-0.6441867
-0.6200605
-0.5638379
-0.480217
-0.4079112
-0.3984801
-0.4444254
-0.5145027
-0.5449762
-0.5072417
-0.4354128
-0.3624593
-0.3017333
-0.2328398
-0.163181
-0.1044502
-0.0110336
0.1294998
0.2793114
0.4144701
0.5078182
0.5346015
0.514828
0.4794782
0.4357754
0.3824238
0.3373976
0.3134917
0.2901443
0.261482
0.2346777
0.2149249
0.1867246
0.1235606
0.05343474
-0.003388754
-0.05859705
-0.09889953
-0.1182667
-0.1389859
-0.161071
-0.1704491
-0.1981512
-0.2469076
-0.2864736
-0.3478685
-0.4259341
-0.4480784
-0.4033881
-0.3366796
-0.27345
-0.2176253
-0.1655457
-0.1006731
-0.0234201
0.05755711
0.1286033
0.1499227
0.1275961
0.08672966
0.04008364
0.006970771
-0.006988924
0.03955474
0.1496087
0.261513
0.3763087
0.4973776
0.5616991
0.5221336
0.4041107
0.2787234
0.177966
0.09912482
0.05821862
0.03303561
-0.01258369
-0.05827301
-0.1153382
-0.2296408
-0.3753199
-0.5001219
-0.5862687
-0.6204637
-0.5917118
-0.5034477
-0.3721252
-0.1977783
0.003487298
0.1716738
0.2872544
0.347653
0.3605387
0.3695362
0.3802282
0.3908233
0.4148031
0.4495844
0.4913972
0.5417636
0.5971942
0.6237809
0.5634181
0.3923723
0.1647767
-0.07772996
-0.3254105
-0.5507466
-0.7302603
-0.7951459
-0.8131637
-0.8163099
-0.8428378
-1.478392
-2.765035
-3.715665
-3.905597
-3.600523
-2.259787
0.5686553
3.560157
5.594498
6.656774
6.660889
5.841504
4.392301
2.433568
0.5718262
-0.9684095
-2.439367
-3.678322
-4.277819
-4.21855
-3.737311
-3.093549
-2.490322
-1.942881
-1.390152
-0.7437683
0.006610491
0.659704
1.067207
1.284459
1.445413
1.618882
1.747182
1.76669
1.70048
1.569818
1.366483
1.150242
0.95265
0.7162324
0.4072476
0.04110894
-0.2646575
-0.3777933
-0.3317115
-0.2459635
-0.2113514
-0.2529937
-0.3523539
-0.4872682
-0.6341112
-0.7822781
-0.9111799
-1.021371
-1.106258
-1.140473
-1.131364
-1.047922
-0.8669581
-0.6263811
-0.3522871
-0.0601141
0.2008099
0.4021414
0.5649058
0.6860676
0.7552232
0.7860792
0.7906516
0.7559449
0.6593202
0.5108515
0.3483286
0.1988639
0.07659823
-0.0102823
-0.08427501
-0.1584874
-0.2038265
-0.1922667
-0.1368287
-0.05904023
0.04420869
0.1540131
0.2566618
0.3338208
0.360128
0.3630027
0.33136
0.2453025
0.1438479
0.03453551
-0.1020494
-0.2533025
-0.3757376
-0.4711992
-0.5610058
-0.6246381
-0.6719623
-0.6976568
-0.6717489
-0.5947081
-0.4538013
-0.2629699
-0.05969362
0.1279444
0.2955228
0.4631956
0.5886343
0.634459
0.6259003
0.5833921
0.5189915
0.4464659
0.3812317
0.3224849
0.2566203
0.1614722
0.03281583
-0.1116925
-0.2570968
-0.3637325
-0.4176981
-0.449559
-0.4760734
-0.4893011
-0.4716763
-0.4276713
-0.3641161
-0.2685384
-0.1522637
-0.03557776
0.08825536
0.2135739
0.3018121
0.3277513
0.3258908
0.3403428
0.3553585
0.3273632
0.2551238
0.179259
0.1106975
0.04985968
0.0132797
-0.00345389
-0.01906616
-0.04452428
-0.05176123
-0.02038212
0.0284173
0.09606702
0.1880216
0.2763812
0.3204493
0.2786773
0.1528373
-0.00173623
-0.1575268
-0.3059458
-0.4166469
-0.4763609
-0.4890492
-0.4584037
-0.3629358
-0.1844963
0.03998331
0.2419532
0.3582309
0.3821827
0.3244318
0.1750335
-0.03139845
-0.2350024
-0.397655
-0.4969102
-0.5314326
-0.5249617
-0.4841212
-0.3802205
-0.2327747
-0.1053497
-0.0005925731
0.1106865
0.2448539
0.3940296
0.5131279
0.5926173
0.6422531
0.6483356
0.5969312
0.4797872
0.3380424
0.2132355
0.1094818
0.0397594
-0.01808796
-0.078332
-0.1038758
-0.1012867
-0.1127734
-0.1476802
-0.2040184
-0.2932227
-0.4010331
-0.4836593
-0.5363035
-0.5987715
-0.6655893
-0.6895916
-0.6504013
-0.5354269
-0.3391957
-0.0927994
0.1419927
0.3219322
0.4353797
0.4867422
0.5099626
0.5235651
0.5349226
0.5484902
0.5357114
0.5033756
0.4750139
0.4331782
0.3671009
0.2962854
0.2571966
0.2511784
0.2386312
0.1956611
0.1255039
0.04647584
-0.01950045
-0.05494521
-0.07373274
-0.1128084
-0.1877441
-0.2798982
-0.3512602
-0.3678559
-0.3135515
-0.2306183
-0.2000845
-0.254419
-0.3649297
-0.5016823
-0.6494453
-0.7586768
-0.788685
-0.7387137
-0.6002308
-0.3943675
-0.1760111
0.03073121
0.2190855
0.3623793
0.4389963
0.4443362
0.3897058
0.3181304
0.2635454
0.2157452
0.1732441
0.1577764
0.1697193
0.2062464
0.2522137
0.2856746
0.3090735
0.3222641
0.3294619
0.3196218
0.2738178
0.1851077
0.05727696
-0.05480615
-0.1144442
-0.1574169
-0.2000855
-0.2114637
-0.1836517
-0.1389608
-0.1052579
-0.1090381
-0.1318311
-0.1380166
-0.1243833
-0.09174228
-0.05964214
-0.03232251
0.01494475
0.05861614
0.08571055
0.1123755
0.1279907
0.1260739
0.1082153
0.08151795
0.04933343
0.008851191
-0.02807
-0.06098765
-0.09740426
-0.1191042
-0.1026718
-0.05938864
-0.009935267
0.03880739
0.07774865
0.1022237
0.1061627
0.09196373
0.07079651
0.03993582
-0.0005749563
-0.04220468
-0.06648853
-0.07018701
-0.08646834
-0.1237137
-0.1654723
-0.209363
-0.2440742
-0.2455785
-0.1899653
-0.08189747
0.0392307
0.1342777
0.1713804
0.1498284
0.08708107
-0.008079681
-0.1047847
-0.189467
-0.2818512
-0.361286
-0.3782493
-0.3232517
-0.2150858
-0.07060356
0.09117077
0.2541838
0.3898736
0.465625
0.491511
0.4864083
0.4426629
0.3654307
0.2631559
0.1353722
0.009990036
-0.08540199
-0.1239305
-0.08433715
0.002492188
0.1150991
0.1371154
0.1159928
0.06606998
-0.02195016
0.09568886
0.2023982
1.921214
4.568569
2.474054
-3.058772
-5.839355
-4.652392
-1.856561
-0.2800693
0.577411
1.528105
1.401062
0.4239073
-0.5902163
-1.21659
-1.319359
-0.9650974
-0.2458169
0.558136
1.205727
1.600042
1.780941
1.806291
1.648637
1.276409
0.7285001
0.1016413
-0.507701
-1.029655
-1.407204
-1.580047
-1.526708
-1.302884
-0.9676355
-0.5601006
-0.1347837
0.2810349
0.6721521
0.9987436
1.230291
1.341581
1.320494
1.181298
0.9295133
0.5852867
0.1957796
-0.1907747
-0.5227769
-0.7750202
-0.9455744
-1.042331
-1.067202
-1.01622
-0.9161519
-0.7803549
-0.6126211
-0.4146891
-0.187396
0.02038796
0.1783429
0.293799
0.3612877
0.4108862
0.4926255
0.5824529
0.6329976
0.6254637
0.5342169
0.3702913
0.1765444
-0.009723504
-0.1425528
-0.1906856
-0.1544901
-0.05458298
0.07881752
0.1907883
0.2308962
0.1977454
0.1084096
-0.01754336
-0.1407838
-0.2286896
-0.2978173
-0.3378341
-0.285134
-0.1527718
-0.04119167
-0.01377521
-0.1091861
-0.3334691
-0.518648
-0.4356802
0.005568351
0.5894334
1.004854
1.309551
1.516667
1.339818
0.7441046
-0.02665332
-0.7509413
-1.257033
-1.473234
-1.455631
-1.25761
-0.9524758
-0.6839007
-0.5096222
-0.3862457
-0.2789113
-0.1857429
-0.1046494
0.001258304
0.1545599
0.349663
0.5587265
0.7203323
0.8013361
0.8064851
0.7646406
0.7049549
0.6263555
0.5379792
0.446297
0.3493009
0.256614
0.1665187
0.07794385
0.004575168
-0.05132558
-0.10352
-0.156811
-0.2263775
-0.3247646
-0.4299165
-0.5214759
-0.5752217
-0.5614641
-0.4866809
-0.3822392
-0.2833592
-0.1999433
-0.101856
0.02116298
0.1506949
0.2732596
0.3652514
0.4056753
0.3990112
0.3513921
0.2629105
0.1432966
0.01855275
-0.08513328
-0.1660451
-0.2179254
-0.2344854
-0.2314573
-0.2240326
-0.2170661
-0.1823923
-0.09196869
0.02777852
0.1124815
0.1210877
0.06621758
-0.01728566
-0.0997522
-0.1653017
-0.1857786
-0.1362045
-0.02624231
0.1111939
0.229694
0.305502
0.3261145
0.2827244
0.2050114
0.1287847
0.06942721
0.03021957
0.002236572
-0.01400466
-0.01632015
-0.01769597
-0.0239897
-0.04497099
-0.08031437
-0.1192546
-0.1742543
-0.257515
-0.3694126
-0.4747902
-0.5109932
-0.4479052
-0.3088617
-0.1509181
-1.699019e-05
0.1417458
0.2522288
0.3097569
0.3088155
0.2739398
0.2339075
0.2046143
0.2030214
0.2348552
0.3019323
0.3804358
0.4383951
0.4766875
0.4818169
0.4347737
0.3404729
0.2123137
0.08313893
-0.02801475
-0.1254565
-0.1856391
-0.1817328
-0.1359502
-0.10031
-0.09249682
-0.1011342
-0.1333227
-0.193001
-0.2670173
-0.3539383
-0.4460551
-0.5154961
-0.557229
-0.5568478
-0.4809737
-0.3426189
-0.1746557
-0.009033796
0.1215935
0.1882926
0.1922804
0.1674716
0.1229131
0.1214592
0.186565
0.1853266
0.07398976
-0.06487069
-0.1830899
-0.2712196
-0.3171779
-0.2999919
-0.2304628
-0.1534629
-0.09826434
-0.05666594
-0.01309271
0.03664865
0.08855231
0.1498495
0.2287348
0.297493
0.3337055
0.3587642
0.403926
0.4768693
0.5828083
0.7017452
0.7614285
0.7195835
0.5933102
0.4104117
0.2062486
0.01430755
-0.1706364
-0.343434
-0.4712983
-0.5475643
-0.5768856
-0.5803461
-0.5891798
-0.6110817
-0.6350594
-0.6209686
-0.5461536
-0.4400912
-0.3191915
-0.1878637
-0.0338972
0.1619346
0.3534596
0.5197932
0.6751181
0.7811415
0.8254969
0.8054957
0.6864916
0.4739902
0.2148919
-0.02574813
-0.210735
-0.3427295
-0.4043185
-0.3949548
-0.3552711
-0.3215942
-0.3090712
-0.317892
-0.3453297
-0.3844897
-0.4452771
-0.5139064
-0.53911
-0.4974165
-0.3768326
-0.1946269
-0.0005075673
0.1802045
0.3279736
0.4175001
0.4592869
0.4936657
0.5251942
0.5246563
0.4897985
0.4379283
0.3675722
0.2731948
0.1689998
0.08751144
0.02872057
-0.06055925
-0.1949402
-0.3483425
-0.5071399
-0.6422403
-0.712576
-0.6900699
-0.588263
-0.4507907
-0.3126536
-0.1736161
-0.006501294
0.1837061
0.4030018
0.6455883
0.8364353
0.9158568
0.9024796
0.8529319
0.7483695
0.6284468
0.5675867
0.487806
0.358728
0.2082106
0.09505069
-0.07215099
-0.5786926
-1.30287
-1.941364
-2.364571
-2.401616
-2.081253
-1.589899
-1.004503
-0.3486282
0.3850601
1.1499
1.877415
2.556689
3.117496
3.420301
3.368786
2.988764
2.381702
1.612203
0.717279
-0.2414314
-1.192963
-2.067334
-2.776927
-3.277293
-3.542692
-3.459718
-2.963777
-2.14239
-1.183145
-0.3403686
0.2092012
0.4388807
0.385058
0.1251202
-0.2190245
-0.5442251
-0.795285
-0.9616184
-1.103191
-1.267665
-1.272739
-0.7370296
0.4213791
1.880694
3.306229
4.467216
5.297958
5.684664
5.374009
4.361091
2.94153
1.57106
0.5534508
-0.1415814
-0.6397514
-1.068408
-1.461952
-1.746216
-1.934128
-2.181636
-2.664548
-3.442072
-4.384738
-5.155683
-5.512599
-5.287805
-4.40486
-3.413276
-2.624705
-1.638894
-0.4902549
0.5302347
1.45642
2.316446
3.036291
3.580847
3.982584
4.22752
4.2841
4.178128
3.900423
3.457626
2.913036
2.319146
1.717188
1.145691
0.637481
0.1954357
-0.2038814
-0.5769152
-0.9007257
-1.147034
-1.354583
-1.558158
-1.757644
-1.955601
-2.12933
-2.238912
-2.235611
-2.099111
-1.867298
-1.575879
-1.249957
-0.9399313
-0.6698926
-0.4146625
-0.1630079
0.0722248
0.2670599
0.4103452
0.4945073
0.5094221
0.4932843
0.4700173
0.4539723
0.4931162
0.5882803
0.7011749
0.7776103
0.772455
0.6939163
0.5726393
0.4252723
0.2662322
0.1290346
0.03683149
0.002230579
0.0259887
0.09467524
0.2107223
0.3564276
0.478365
0.5224774
0.4680571
0.3408592
0.1744058
-7.599171e-05
-0.1559644
-0.309629
-0.4837964
-0.6434223
-0.7353017
-0.7377865
-0.6706609
-0.5741411
-0.453054
-0.3107943
-0.193361
-0.1423025
-0.1632739
-0.229947
-0.2795407
-0.2575071
-0.1703538
-0.06598657
-0.002945978
0.03402631
0.1277124
0.3169506
0.5758524
0.7887697
0.8232229
0.657895
0.3539024
0.01025478
-0.262169
-0.3914087
-0.3565781
-0.1784946
0.08311348
0.3439738
0.5284167
0.6177137
0.6471478
0.6542629
0.6402976
0.571656
0.418043
0.1541572
-0.1944084
-0.5380988
-0.8037609
-0.9322664
-0.8960742
-0.7102299
-0.4175726
-0.1265824
0.0754979
0.1892143
0.2322569
0.2117212
0.1200713
-0.0381755
-0.229062
-0.4220605
-0.576602
-0.6439803
-0.5995703
-0.4544208
-0.243645
0.005151495
0.2602197
0.4694209
0.5944848
0.637745
0.6155867
0.5386296
0.4205045
0.2721429
0.11688
-0.01745688
-0.1268321
-0.2267735
-0.3289568
-0.4051917
-0.4230388
-0.3847098
-0.2833695
-0.1173754
0.05581553
0.1746262
0.2382039
0.2688065
0.2999316
0.340093
0.3421381
0.3106169
0.2692052
0.1933476
0.08692694
-0.03511113
-0.1605683
-0.256181
-0.3097365
-0.3180208
-0.2848592
-0.2327819
-0.1665061
-0.08591975
0.09351572
0.4060417
0.5945789
0.4758299
0.1685536
-0.1909539
-0.4984831
-0.6416397
-0.6054941
-0.4573651
-0.265636
-0.07971331
0.06959797
0.1706351
0.2365224
0.2917883
0.3498645
0.4035401
0.4596883
0.5088082
0.4810631
0.3291513
0.05334902
-0.2827756
-0.5717042
-0.7666197
-0.852706
-0.8313861
-0.7395676
-0.6041944
-0.4339174
-0.2185964
0.03663239
0.2898165
0.5102419
0.6698948
0.7288869
0.6827372
0.5764343
0.4589756
0.3374546
0.216398
0.1378057
0.1405108
0.2159665
0.2976875
0.3305075
0.2905617
0.1676113
0.01021806
-0.1275524
-0.231818
-0.2833479
-0.2757433
-0.2384761
-0.1936637
-0.1506345
-0.1311029
-0.1549197
-0.2167009
-0.2936355
-0.3638279
-0.3999378
-0.3978688
-0.35921
-0.2616978
-0.1315945
-0.02174675
0.04963532
0.08087699
0.08811662
0.09816942
0.1073724
0.1072232
0.1132773
0.1178262
0.1132967
0.1016743
0.08409917
0.08524008
0.103701
0.1101267
0.07983473
0.003336371
-0.08295001
-0.1265891
-0.1237581
-0.1048748
-0.07077243
-0.0059152
0.06931965
0.1469881
0.2442069
0.3304775
0.3635829
0.3305962
0.2502814
0.1662208
0.08509227
0.007602676
-0.04596878
-0.09819841
-0.1739763
-0.2611146
-0.3485265
-0.4161173
-0.443849
-0.4308073
-0.3693545
-0.2598243
-0.1255017
0.02975001
0.2040725
0.353248
0.4401601
0.4674466
0.4553933
0.4208501
0.3658367
0.281658
0.1715951
0.06662481
-0.01086693
-0.06506836
-0.105219
-0.1289735
-0.1283395
-0.1139381
-0.1100461
-0.1064493
-0.08720468
-0.08461784
-0.09550157
-0.1149225
-0.1263608
-0.1072081
-0.1608618
-0.249038
-0.5463545
-1.651029
-3.176313
-3.967591
-3.928235
-3.211755
-1.071853
2.294644
5.249428
6.952331
7.555832
7.138456
5.84657
3.903309
1.675727
-0.3149362
-2.014387
-3.621609
-4.906523
-5.594581
-5.725435
-5.430972
-4.941657
-4.346275
-3.455333
-2.159494
-0.5405465
1.125983
2.484693
3.438295
4.112009
4.562541
4.757826
4.664537
4.265666
3.60515
2.756088
1.769166
0.7015424
-0.3804931
-1.396782
-2.288387
-3.019319
-3.525559
-3.769827
-3.758662
-3.525928
-3.12643
-2.589352
-1.945774
-1.251763
-0.5625352
0.06317607
0.5708248
0.9284961
1.143626
1.25374
1.28664
1.267475
1.229234
1.18061
1.126784
1.092283
1.082633
1.089942
1.125035
1.198241
1.280281
1.32362
1.293259
1.160841
0.9211516
0.591854
0.2144138
-0.1499736
-0.4691319
-0.7442865
-0.9685306
-1.130945
-1.239332
-1.303582
-1.315047
-1.287942
-1.253642
-1.194107
-1.109274
-1.006933
-0.8707536
-0.7149922
-0.5287896
-0.3080415
-0.05547127
0.2453819
0.5653704
0.8714189
1.136309
1.316979
1.36681
1.260047
1.036723
0.755814
0.4487557
0.1644125
-0.06028444
-0.2406256
-0.366214
-0.4137973
-0.412821
-0.4028815
-0.3906763
-0.3532487
-0.2872769
-0.2243219
-0.1780638
-0.1394054
-0.1081212
-0.09120142
-0.09262083
-0.117541
-0.1479752
-0.1452753
-0.1038123
-0.04520106
0.00977217
0.06795634
0.1592194
0.2591377
0.3134267
0.3224185
0.3115459
0.2925536
0.2684415
0.2156073
0.1160038
-0.005056518
-0.1114732
-0.1756106
-0.1930377
-0.174751
-0.1276296
-0.06834152
-0.02320917
0.004606018
0.0247967
0.01342592
-0.0319602
-0.07254338
-0.1020282
-0.1295787
-0.1528151
-0.1730499
-0.1713061
-0.1292658
-0.06016169
0.03958332
0.1791502
0.3281615
0.4436476
0.5000242
0.4834329
0.388304
0.2281435
0.02448442
-0.1863379
-0.3578565
-0.461675
-0.4848933
-0.4393059
-0.3536147
-0.2459806
-0.1174381
0.008481169
0.08350282
0.106934
0.1052951
0.09779938
0.08750994
0.05892802
0.02400211
0.001398531
0.01746046
0.08534023
0.1791513
0.2892011
0.3964566
0.4749407
0.4990472
0.4345637
0.2845577
0.08909417
-0.100581
-0.26186
-0.3778272
-0.4263883
-0.417996
-0.3543026
-0.2564603
-0.1768069
-0.1359067
-0.1446494
-0.1826015
-0.2154382
-0.2543633
-0.3064823
-0.3618256
-0.3909394
-0.3752513
-0.3355212
-0.2688462
-0.161033
-0.01370107
0.1568813
0.326881
0.5006636
0.6746441
0.7938862
0.8010195
0.7103274
0.5726184
0.4028783
0.225562
0.06049775
-0.1069548
-0.2536536
-0.3341928
-0.3321189
-0.2665581
-0.1694593
-0.07984111
-0.04735827
-0.06627527
-0.08876555
-0.08811875
-0.06455356
-0.05107213
-0.06768867
-0.09809107
-0.1382667
-0.1830776
-0.2139381
-0.2250704
-0.197125
-0.1239473
-0.0576594
-0.0152993
0.0407777
0.1098045
0.1898681
0.2909613
0.3728257
0.4070421
0.4185593
0.4385859
0.4813575
0.5190391
0.4991876
0.4065736
0.2571845
0.07353821
-0.1197769
-0.3107491
-0.4820578
-0.6187243
-0.7160657
-0.7484523
-0.7026387
-0.6074917
-0.4989689
-0.4077904
-0.3409131
-0.2625546
-0.1717913
-0.09410292
-0.01032564
0.07070062
0.1134412
0.1292435
0.1560329
0.220779
0.2974518
0.3293796
0.3165232
0.292605
0.2691752
0.25571
0.2465468
0.2122777
0.1433707
0.06629173
0.02108297
0.03571431
0.1092739
0.2028926
0.278796
0.3287638
0.3314279
0.2648273
0.1530387
0.02711048
-0.1034981
-0.2271479
-0.3288983
-0.3970446
-0.4150828
-0.3731165
-0.2891708
-0.195615
-0.115848
-0.05777886
-0.0054998
0.04955002
0.08279819
0.08613352
0.06155321
-0.0003180802
-0.09117516
-0.1885652
-0.2613029
-0.2880995
-0.2663684
-0.1979064
-0.0897997
0.04016189
0.1602213
0.2657265
0.3876778
0.5112083
0.5923451
0.6178334
0.569288
0.4417708
0.2611439
0.05455117
-0.1441729
-0.303629
-0.4197891
-0.4976683
-0.5320618
-0.5316332
-0.497757
-0.4100105
-0.2490875
-0.05438024
0.08561786
0.1493367
0.1563429
0.1363367
0.1367119
0.1610131
0.1724597
0.1442911
0.08802972
0.03008282
-0.01920417
-0.06068071
-0.09446394
-0.1221932
-0.1274877
-0.1132689
-0.1180142
-0.1186988
-0.07919677
-0.01671422
0.03769441
0.06060413
0.06263646
0.0679185
0.0789044
0.08733869
0.09979713
0.1326726
0.1824754
0.217746
0.2083769
0.1516934
0.06385344
-0.03859734
-0.1524697
-0.2674333
-0.3448446
-0.3597251
-0.3386357
-0.3106937
-0.2710816
-0.1950634
-0.0579579
0.1209119
0.2988332
0.4487529
0.5586134
0.6492434
0.7371337
0.8057833
0.8360068
0.7989662
0.6733105
0.4676726
0.2112758
-0.04666916
-0.2729836
-0.4554169
-0.5976391
-0.7059625
-0.7784674
-0.8494634
-0.9282836
-0.9839873
-0.9936879
-0.9283413
-0.8007947
-0.6559561
-0.5137649
-0.3653546
-0.1968208
-0.008346047
0.1960004
0.399161
0.5825104
0.7325424
0.8344287
0.893962
0.9279934
0.9338781
0.8852112
0.7652103
0.583595
0.3585944
0.1207008
-0.09392616
-0.2655473
-0.3775043
-0.4052447
-0.3573901
-0.2710828
-0.1764944
-0.1106488
-0.07626166
-0.05219326
-0.02120291
0.05258998
0.13702
0.1666999
0.1313484
0.03652177
-0.07399181
-0.1623495
-0.2381318
-0.2966236
-0.3392814
-0.3707436
-0.3789512
-0.3658904
-0.334556
-0.2817172
-0.2261196
-0.1981807
-0.1996884
-0.2248119
-0.2592186
-0.2727782
-0.2775251
-0.2819925
-0.2553062
-0.1754867
-0.03259123
0.1633879
0.3941184
0.641185
0.8650559
1.03518
1.136721
1.146508
1.070759
0.9344472
0.7248744
0.4596086
0.2104989
0.01331496
-0.1109273
-0.1463809
-0.1323811
-0.1523833
-0.2884679
-0.5381399
-0.8273252
-1.078882
-1.228215
-1.249886
-1.155272
-0.9581203
-0.6758095
-0.3662301
-0.0850719
0.1678053
0.4037083
0.603059
0.7248494
0.7551658
0.7192456
0.6397884
0.5449931
0.4825415
0.4643773
0.4579031
0.4149187
0.3069603
0.1517948
-0.03023026
-0.2179671
-0.385165
-0.5154921
-0.592081
-0.6063778
-0.5632843
-0.4832124
-0.3966364
-0.3259344
-0.2727788
-0.2147496
-0.1101724
0.03954557
0.1669001
0.2254074
0.2057594
0.1284808
0.04169901
-0.0235039
-0.04436021
-0.01595559
0.03653383
0.1065212
0.1955367
0.2799342
0.3379603
0.3484062
0.2941751
0.1903227
0.06491695
-0.04104283
-0.07833886
-0.06225803
-0.04856457
-0.04765934
-0.05142283
-0.06616786
-0.09205694
-0.11304
-0.118464
-0.1245429
-0.09967219
-0.0721146
-0.007738746
0.4391162
0.9204996
0.7805995
0.3745177
0.005114175
-0.3226835
-0.4773921
-0.5320901
-0.5144123
-0.3783977
-0.1321719
0.1520651
0.37209
0.4621458
0.4220954
0.3037829
0.1410728
-0.02402225
-0.1663889
-0.289211
-0.3781286
-0.4405774
-0.4864683
-0.4895619
-0.4604865
-0.4268517
-0.3738582
-0.2935751
-0.1996754
-0.1001211
0.001989959
0.1003978
0.1914782
0.2964595
0.4330433
0.571119
0.6704302
0.7242516
0.7393495
0.7121035
0.6385218
0.5215
0.3618364
0.1684732
-0.0292931
-0.2117983
-0.3810627
-0.5298038
-0.6494789
-0.7488231
-0.7956719
-0.7219368
-0.5296122
-0.273202
-0.04870176
0.00853826
-0.1254881
-0.350189
-0.5525537
-0.6549383
-0.6257508
-0.474498
-0.2511067
-0.005917599
0.2325134
0.441621
0.6059105
0.7183141
0.7962421
0.8409525
0.8273705
0.7594642
0.6487989
0.5013527
0.3220592
0.1344324
-0.03355997
-0.1887908
-0.3277385
-0.4264832
-0.4523803
-0.3852578
-0.2456492
-0.07842471
0.05356654
0.1206224
0.1407701
0.1384861
0.1407029
0.1397524
0.1208831
0.09487858
0.05832742
0.02540914
0.003411482
-0.04839481
-0.1242595
-0.1617104
-0.1385318
-0.07311813
-0.02127098
-0.03717077
-0.08720896
-0.128315
-0.175873
-0.2623433
-0.3703775
-0.440581
-0.4456792
-0.3675101
-0.2301034
-0.09849163
0.004385439
0.08555412
0.1582411
0.2053903
0.2090462
0.1785928
0.1348339
0.1092743
0.0845202
0.05985645
0.06446286
0.08368263
0.1328708
0.2078147
0.2574181
0.2611364
0.2208371
0.1561925
0.06316486
-0.06358027
-0.1932857
-0.2680123
-0.249042
-0.189093
-0.1186876
-0.02429418
0.06524649
0.1388959
0.2084281
0.2509861
0.2442059
0.182508
0.05004039
-0.08974585
-0.1417502
-0.1634246
-0.2514434
-0.3346323
-0.3261894
-0.2802505
-0.2178007
-0.1119276
0.01320259
0.1144564
0.1713134
0.2046369
0.2018367
0.1781188
0.1936178
0.2349774
0.2776903
0.3029382
0.2714724
0.1676212
0.0422377
-0.03551489
-0.08374498
-0.1451193
-0.2265404
-0.3122455
-0.3817926
-0.4495416
-0.4865933
-0.4431382
-0.3389103
-0.1880905
-0.01237897
0.1818734
0.3620703
0.3934788
0.2840068
0.1158172
-0.1013906
-0.2840112
-0.4056778
-0.4949947
-0.5039557
-0.4372678
-0.292097
-0.05540776
0.2043606
0.488335
0.8077129
1.09352
1.265187
1.262653
1.089156
0.8012869
0.465867
0.1523173
-0.05626998
-0.181208
-0.3039364
-0.4010599
-0.4641851
-0.5038592
-0.4851245
-0.4686553
-0.4959547
-0.4984213
-0.4953644
-0.5062304
-0.4661625
-0.4106964
-0.4199922
-0.4291315
-0.3633106
-0.2024892
0.0389819
0.233444
0.3533579
0.4244658
0.4059266
0.3652095
0.3762145
0.4149759
0.4341594
0.3904413
0.286436
0.1815645
0.07969347
-0.04865112
-0.1790345
-0.2912337
-0.4009959
-0.4895218
-0.5120349
-0.4861007
-0.4147533
-0.3071485
-0.2367587
-0.2168559
-0.1887898
-0.1365601
-0.1062115
-0.07596254
0.002849877
0.0972613
0.167653
0.2293573
0.2865955
0.2718076
0.2406381
0.2819221
0.2600909
0.200911
0.3027258
0.4495112
0.5176931
0.5810244
0.6179655
0.6666409
0.7104597
0.6173195
0.4620962
0.2855526
0.04562943
-0.2402009
-0.5062888
-0.6631197
-0.7753673
-0.899457
-1.036759
-1.113612
-1.051729
-1.014096
-0.9482285
-0.706193
-0.4746986
-0.3250173
-0.159676
0.03598215
0.2600084
0.4388709
0.523118
0.6279177
0.7752441
0.9415818
1.08296
1.151609
1.317362
1.510786
1.516824
1.398075
1.262915
1.086923
0.6726927
-0.08190444
-1.05669
-1.94105
-2.419852
-2.548053
-2.43519
-2.01889
-1.368447
-0.6300614
0.05507069
0.5938219
1.025202
1.331654
1.531177
1.636098
1.570142
1.358381
0.9511203
0.4062611
-0.07630648
-0.5350998
-1.04477
-1.559402
-2.03852
-2.359265
-2.335606
-1.946734
-1.345295
-0.7741684
-0.2058752
0.4302956
0.7410987
0.6906001
0.482017
0.0585434
-0.3239747
-0.5592466
-0.7754624
-0.9075567
-0.8996185
-0.4556585
0.9127371
3.133392
5.252139
6.256553
5.870312
4.580791
3.112381
1.743442
0.593407
-0.3623027
-1.329474
-2.035473
-2.267316
-2.212976
-1.969249
-1.800811
-2.070021
-2.5642
-2.9098
-3.249577
-3.542437
-3.497163
-3.083258
-2.329554
-1.423537
-0.6362725
-0.1061978
0.1628771
0.223909
0.2182928
0.3779995
0.7289999
1.149781
1.585958
2.108618
2.691887
3.121921
3.283522
3.221178
3.057053
2.801932
2.371025
1.882209
1.463068
0.9991804
0.4379071
-0.1130063
-0.5606833
-1.029692
-1.65655
-2.151216
-2.330228
-2.348344
-2.297273
-2.213683
-2.038802
-1.732275
-1.35105
-0.938812
-0.5264136
-0.1257383
0.2078868
0.4183971
0.5435761
0.6875898
0.799784
0.7358301
0.6290638
0.4733551
0.1880904
0.1043003
0.2168643
0.1786424
-0.02000096
-0.1442166
-0.0775215
-0.05357533
-0.1670341
-0.2917964
-0.4129506
-0.3702786
-0.1608052
-0.01071367
0.08680011
0.1760421
0.2781284
0.4311489
0.5154982
0.4390548
0.3351879
0.2886337
0.2060602
0.1780182
0.2698478
0.2886477
0.276904
0.3053915
0.2444113
0.1871606
0.151588
-0.08402737
-0.4645029
-0.7311636
-0.8071869
-0.6996403
-0.4508592
-0.2451886
-0.03267714
0.3572218
0.6869268
0.8460113
0.9768143
0.898526
0.5052364
0.01233425
-0.402003
-0.6396955
-0.7156272
-0.7556087
-0.8110533
-0.7399277
-0.4235853
0.0008866108
0.3788745
0.618854
0.6772325
0.5921997
0.3518749
0.02791952
-0.208891
-0.3836117
-0.6482807
-0.870067
-0.8404318
-0.6221036
-0.3053674
0.0006567395
0.1830344
0.315031
0.4915901
0.6335123
0.6403056
0.5286452
0.3255942
0.1157214
0.00666364
-0.0338229
-0.09855626
-0.2168995
-0.300115
-0.2948638
-0.2604727
-0.1592093
0.02423322
0.1510318
0.2034362
0.2788061
0.3821413
0.4868036
0.4896223
0.3105148
0.1369595
0.05639273
-0.04899613
-0.1215698
-0.1567803
-0.2661389
-0.2704682
-0.08138505
0.08469786
0.2095116
0.2786488
0.2657869
0.242769
0.1251133
-0.05714592
-0.2888234
-0.6414893
-0.9615514
-1.064516
-0.9355467
-0.717926
-0.5316414
-0.3626019
-0.1440853
0.13467
0.3622996
0.4329565
0.4120681
0.397169
0.3691479
0.321255
0.2962612
0.3593317
0.397882
0.2368783
0.1207248
0.2075142
0.2444393
0.1791542
0.1205845
0.09970979
0.1119382
0.1081595
0.1306251
0.1899
0.2238154
0.2633694
0.251757
0.2002416
0.1870082
0.03641341
-0.2019018
-0.3164663
-0.3660555
-0.4264354
-0.5849178
-0.7547804
-0.7120498
-0.5449927
-0.3802139
-0.1460271
0.102575
0.2459297
0.3804055
0.486358
0.3608772
0.04848108
-0.2174413
-0.3381243
-0.3902581
-0.400957
-0.3373824
-0.2516091
-0.2165745
-0.1621542
0.008951676
0.1249419
0.1540696
0.2768347
0.3884118
0.4401272
0.4927606
0.4825642
0.4433996
0.4361357
0.4752854
0.533578
0.5592514
0.5361804
0.4872426
0.4706721
0.2731299
-0.1910988
-0.5336125
-0.7164057
-0.8881753
-0.9464114
-0.874127
-0.729331
-0.5830269
-0.4106493
-0.1895628
0.01731027
0.123871
0.08515117
0.1285859
0.2371021
0.1979102
0.1709038
0.2231335
0.2756899
0.3264404
0.333556
0.2818497
0.1954997
0.1209859
0.08625956
0.05962428
0.007023565
-0.02577084
-0.03972964
-0.09666231
-0.169851
-0.2435185
-0.2244084
-0.1943364
0.08203146
0.4724788
0.2607475
0.6374435
0.5392364
-2.269842
-4.364934
-3.569097
-1.911464
-0.1455371
1.593926
2.76929
3.095325
2.711044
1.99309
1.286586
0.8451127
0.5503733
0.311614
0.2673139
0.3300609
0.3530306
0.2956315
0.1659049
0.008953068
-0.2537163
-0.626302
-0.9182578
-1.113351
-1.305565
-1.350801
-1.187712
-0.9805295
-0.7349804
-0.4314927
-0.189649
0.002647408
0.2022873
0.3639069
0.4786064
0.4202591
0.1579784
0.02040184
0.04687792
0.02868797
-0.1175761
-0.8710886
-2.511543
-3.930007
-4.100557
-3.434239
-1.684677
1.668693
5.152729
7.301208
7.943437
7.288906
5.769907
3.602855
1.094476
-1.14204
-2.838917
-4.086639
-4.867495
-4.955133
-4.447823
-3.736058
-3.006592
-2.341198
-1.763767
-1.119678
-0.3204187
0.5388387
1.392418
2.105492
2.535925
2.753932
2.785542
2.647192
2.39143
1.932063
1.252157
0.4310615
-0.3941364
-1.061039
-1.570517
-1.974013
-2.272113
-2.353621
-2.128778
-1.726272
-1.17721
-0.3905242
0.5516505
1.41893
2.01184
2.270453
2.232061
1.988159
1.617887
1.140258
0.556745
-0.07123282
-0.6168922
-0.998305
-1.213756
-1.286836
-1.170583
-0.904875
-0.6714957
-0.4682761
-0.3130341
-0.3817847
-0.5553581
-0.5784652
-0.480707
-0.384098
-0.285691
-0.1603562
-0.04078501
0.02573847
0.04160159
0.06801772
0.1120078
0.1160509
0.09195956
0.09325023
0.1528921
0.2590453
0.3228599
0.3514344
0.4336804
0.525043
0.6065665
0.7167569
0.7994284
0.8254621
0.8396654
0.8793384
0.8781776
0.7232245
0.4297806
0.07835166
-0.28271
-0.6305405
-0.9006546
-1.016201
-1.013033
-0.9288964
-0.7798909
-0.6321267
-0.5190281
-0.4475012
-0.3997161
-0.337513
-0.2595639
-0.1895085
-0.1421785
-0.1077414
-0.0497114
0.06699126
0.2122941
0.3149167
0.3497
0.3543455
0.3679534
0.375158
0.346041
0.2938531
0.2663386
0.2877614
0.3386762
0.3903837
0.4124593
0.3559284
0.22885
0.08180577
-0.06962571
-0.1635029
-0.2138432
-0.2737487
-0.2987612
-0.2933838
-0.2378492
-0.1559783
-0.1205021
-0.09933586
-0.1092695
-0.1638707
-0.2166964
-0.2505533
-0.2361673
-0.1693847
-0.111802
-0.09957545
-0.08401135
-0.01484549
0.07000799
0.1173266
0.1451541
0.161739
0.16412
0.1700917
0.1593276
0.1162454
0.05690837
0.008585787
-0.01956012
-0.04503071
-0.06973201
-0.09294812
-0.12243
-0.150987
-0.1346091
-0.05511392
0.01635672
0.04919643
0.1057315
0.2142754
0.3457613
0.4598854
0.5222967
0.5077797
0.4360996
0.3744861
0.3373682
0.2951386
0.2557048
0.2348137
0.2123245
0.1644278
0.06778862
-0.09710207
-0.3094352
-0.5616028
-0.839956
-1.088229
-1.264397
-1.346053
-1.336893
-1.242557
-1.059036
-0.7918615
-0.4637333
-0.1302578
0.1682324
0.4018715
0.5366414
0.587823
0.5879857
0.5612128
0.5543712
0.5957537
0.6462615
0.6854039
0.7427074
0.8195198
0.8670021
0.8049204
0.692248
0.6544693
0.6373755
0.5902151
0.5591792
0.5099341
0.3718652
0.1771438
-0.01650844
-0.2225305
-0.4489281
-0.6290771
-0.7192549
-0.7589958
-0.7756661
-0.7707573
-0.7467215
-0.7079391
-0.6729297
-0.6667144
-0.6843184
-0.6806241
-0.6386319
-0.5747515
-0.4947594
-0.3859668
-0.2526489
-0.1292011
-0.02284645
0.09057155
0.2409172
0.4228051
0.5882677
0.7338013
0.8925761
1.043795
1.137212
1.157729
1.094445
0.9309427
0.6736324
0.353247
0.0344394
-0.2269988
-0.4262419
-0.5722019
-0.6551434
-0.6650343
-0.6127237
-0.5296627
-0.4395491
-0.324703
-0.187482
-0.0755318
-0.02517364
-0.06524616
-0.1873915
-0.3237663
-0.4073986
-0.4097273
-0.3383905
-0.2298527
-0.1256539
-0.04194802
0.02016877
0.0720999
0.1181273
0.1212493
0.0751413
0.03507973
0.03422554
0.06736468
0.1319444
0.2203311
0.3200117
0.4269664
0.5164721
0.5569508
0.5296429
0.4276357
0.2835889
0.1392836
0.01236902
-0.09305371
-0.163324
-0.1869919
-0.1909005
-0.1884152
-0.1710363
-0.1310657
-0.0511358
0.06335898
0.1840153
0.270797
0.2975471
0.2747431
0.2228211
0.1558474
0.08676774
0.0227388
-0.03840129
-0.09203586
-0.1488081
-0.224426
-0.2973006
-0.3363485
-0.3300815
-0.2799173
-0.19725
-0.1129452
-0.03319881
0.04493941
0.07938443
0.04649682
-0.0544297
-0.2085484
-0.375881
-0.5326907
-0.6437688
-0.6792702
-0.6582128
-0.585301
-0.4390371
-0.2326631
-0.009800281
0.1862836
0.3361654
0.4491542
0.525429
0.5525032
0.5430412
0.5265989
0.5201464
0.5393347
0.5848982
0.6214284
0.6200082
0.5694592
0.4554467
0.2864558
0.1028557
-0.06287406
-0.2027066
-0.3032063
-0.3669922
-0.4239108
-0.4720504
-0.5014201
-0.5075608
-0.474492
-0.4099268
-0.3178085
-0.1888507
-0.04256063
0.09021906
0.1960766
0.2564737
0.2476477
0.1771487
0.08722859
0.02236146
-0.01317843
-0.03377182
-0.04530291
-0.05941655
-0.0879073
-0.1205052
-0.1358386
-0.1474913
-0.1586295
-0.1406788
-0.0974475
-0.04284456
0.03406888
0.123279
0.1839203
0.2179147
0.2655568
0.336447
0.4123802
0.4675444
0.4556678
0.3550785
0.2088205
0.05572371
-0.08720554
-0.2101256
-0.2982281
-0.3270999
-0.3194851
-0.2914263
-0.231075
-0.1619513
-0.1010329
-0.05612706
-0.03861967
-0.04302072
-0.06897315
-0.1001953
-0.1237785
-0.1568866
-0.1800552
-0.1778785
-0.1753868
-0.172349
-0.1694988
-0.1747144
-0.173459
-0.1668074
-0.1352555
-0.02341647
0.168529
0.3951823
0.6043488
0.7332429
0.745775
0.6379804
0.4330168
0.1772924
-0.06787834
-0.2473185
-0.3490213
-0.3756706
-0.3409341
-0.2628253
-0.1633925
-0.07358307
0.02172944
0.1235196
0.1916401
0.2171829
0.2303719
0.2339222
0.1933992
0.1255254
0.06891952
0.01780076
-0.04741064
-0.1068355
-0.1510675
-0.200135
-0.2278768
-0.2219665
-0.2127187
-0.2361739
-0.3047296
-0.3869373
-0.4590768
-0.4977562
-0.4763969
-0.3877137
-0.2458569
-0.08881704
0.0700369
0.2284847
0.3540617
0.4294519
0.4525878
0.4348789
0.4258077
0.457409
0.517929
0.5650112
0.553539
0.480978
0.3654745
0.2228395
0.07340924
-0.06974521
-0.1974198
-0.3025531
-0.3794923
-0.4076462
-0.3926947
-0.3635493
-0.3275875
-0.3067855
-0.3096642
-0.3010392
-0.2563391
-0.1871197
-0.1140971
-0.03586471
0.04993453
0.1453159
0.245325
0.3171868
0.3203612
0.2294393
0.07532685
-0.07435657
-0.1724648
-0.1897166
-0.1247394
-0.02501033
0.06369139
0.1331851
0.1822942
0.2129431
0.2079226
0.1579666
0.09508462
0.02535178
-0.05453755
-0.1181514
-0.1434921
-0.1374564
-0.1022147
-0.03575816
0.03254101
0.08009481
0.09152661
0.06429091
0.01204919
-0.04957223
-0.0873285
-0.09147775
-0.08172365
-0.08535679
-0.1015295
-0.09228171
-0.06444275
-0.05607398
-0.08290332
-0.1493594
-0.2370913
-0.3083399
-0.3297656
-0.2958114
-0.2332955
-0.1580553
-0.05881188
0.0598345
0.157321
0.2162965
0.2641969
0.3037585
0.3306488
0.3750733
0.4551159
0.5672768
0.6642506
0.6863528
0.6451753
0.5547568
0.4095256
0.2308253
0.0348848
-0.1447022
-0.2614994
-0.3116846
-0.3056505
-0.265193
-0.236164
-0.2480967
-0.3003268
-0.3600121
-0.3995447
-0.4324076
-0.4757935
-0.5281921
-0.5638838
-0.5406249
-0.4425699
-0.2954489
-0.1308692
0.03029988
0.1691691
0.2588976
0.2708006
0.2188614
0.132899
0.02252964
-0.08156936
-0.144719
-0.1503776
-0.08711553
0.03580463
0.190559
0.3318937
0.4238056
0.4621923
0.4422205
0.3791017
0.3107327
0.260481
0.2277125
0.1765686
0.082207
-0.03320847
-0.1517136
-0.2692114
-0.368511
-0.4234699
-0.4153519
-0.3524077
-0.2542787
-0.1486897
-0.05795744
0.01077617
0.03995476
0.04125522
0.06635755
0.1468321
0.2522116
0.3463435
0.4114904
0.4394398
0.4587564
0.438262
0.3766991
0.3609126
0.3772968
0.3477928
0.2484665
0.1460947
0.1025585
0.08521892
0.03141653
-0.1011422
-0.3110783
-0.5527666
-0.7446943
-0.9171911
-1.210654
-1.648624
-2.089339
-2.237303
-1.903945
-1.221247
-0.3721725
0.5046322
1.241586
1.737656
1.951933
1.876519
1.594347
1.262915
1.026654
0.9120716
0.8798444
0.9008824
0.9207363
0.9516415
0.9997202
0.8971225
0.4992031
-0.1846809
-1.047705
-1.897045
-2.50746
-2.741823
-2.681932
-2.410024
-1.953961
-1.519149
-1.164806
-0.640607
0.2270279
1.2606
2.030221
2.268106
2.131772
1.966928
1.889049
1.792279
1.570966
1.182414
0.6994268
0.2731653
0.03499182
0.02433964
0.1567104
0.3176077
0.3972458
0.3080131
0.03086706
-0.4389373
-1.048129
-1.672853
-2.213724
-2.596224
-2.783827
-2.781423
-2.614048
-2.32701
-1.958903
-1.523987
-1.012369
-0.4259492
0.208832
0.8515854
1.452366
1.967486
2.357868
2.618757
2.763977
2.797897
2.728668
2.542651
2.230718
1.817033
1.328362
0.8111367
0.3174613
-0.1480218
-0.5835502
-0.9856881
-1.352392
-1.645064
-1.852356
-1.966411
-1.932563
-1.729921
-1.398466
-1.013978
-0.6550451
-0.3645512
-0.1585595
0.001065929
0.1748925
0.3484764
0.4921559
0.5847658
0.6064975
0.5832506
0.529101
0.4537481
0.3722259
0.2891935
0.2257963
0.1761605
0.145944
0.158888
0.1748108
0.1509937
0.07241006
-0.0568505
-0.2052626
-0.3499236
-0.4637309
-0.5332511
-0.5403724
-0.4562443
-0.3045629
-0.1416333
-0.02715418
0.02175588
0.0272897
0.02144251
0.03711714
0.05389426
0.06160872
0.08112844
0.1003864
0.1231053
0.1541491
0.1646408
0.1580201
0.1603286
0.1650833
0.1619071
0.1572265
0.1566229
0.1711156
0.2096053
0.2583679
0.2982678
0.3034523
0.2594076
0.1779666
0.05370275
-0.09861193
-0.2547714
-0.4064477
-0.5056831
-0.5181748
-0.4722738
-0.42305
-0.3878463
-0.348592
-0.2862191
-0.1831811
-0.05661167
0.08028524
0.2005786
0.2492476
0.2355486
0.189346
0.1414351
0.1382322
0.169379
0.2024734
0.2337552
0.2638415
0.3087533
0.3907771
0.4947947
0.5893258
0.6343734
0.6063418
0.5208256
0.3470398
0.05534143
-0.3018687
-0.6527125
-0.9327818
-1.102158
-1.149039
-1.067993
-0.8792068
-0.6077865
-0.2905176
-0.00789668
0.1889071
0.3020999
0.3462387
0.3543035
0.3540703
0.3391967
0.3147462
0.2988884
0.2671526
0.1966231
0.1103521
0.05932462
0.03405698
0.01157115
0.02907645
0.05971534
0.1254143
0.1521198
0.1675288
0.1823809
-0.2374434
-0.5405298
-0.03601047
0.5663295
0.7368877
0.4218256
-0.2734812
-0.9359121
-1.241839
-1.135298
-0.8378773
-0.5320683
-0.2404758
0.01953684
0.1876863
0.2347028
0.2228486
0.2222733
0.2602944
0.3309454
0.4311644
0.5340675
0.606295
0.6621341
0.6929157
0.670735
0.6096118
0.5411831
0.474934
0.3943676
0.2921995
0.1726364
0.02095721
-0.1759783
-0.3755141
-0.5185511
-0.6166855
-0.7042517
-0.769316
-0.7937017
-0.7711866
-0.6934153
-0.5695053
-0.4119705
-0.2475001
-0.1195716
-0.01636515
0.08093746
0.1583049
0.2126902
0.2470452
0.2802682
0.3128285
0.3323661
0.3405172
0.3209757
0.2662475
0.1885922
0.1131025
0.05547773
0.001427635
-0.05569271
-0.1078648
-0.1516914
-0.1854527
-0.1755904
-0.08949521
0.01266079
0.05006608
0.02240264
-0.03207215
-0.0898962
-0.1395829
-0.1488601
-0.1188668
-0.08013272
-0.01585955
0.08240907
0.1996456
0.3096714
0.3838995
0.4124327
0.3599254
0.2112415
0.01591436
-0.1581014
-0.2620717
-0.2977165
-0.2919666
-0.2563105
-0.2038104
-0.1568384
-0.1310485
-0.1297467
-0.121478
-0.07313207
-0.001903204
0.07635952
0.1618488
0.2486735
0.3379768
0.4298894
0.5259988
0.6130544
0.6522081
0.6239459
0.5355141
0.4024235
0.2417455
0.05613116
-0.1538146
-0.3628404
-0.5448908
-0.7058439
-0.8311321
-0.9083425
-0.9572413
-0.9491596
-0.8804201
-0.7820994
-0.6477004
-0.4935419
-0.3286187
-0.1378642
0.07802472
0.2967195
0.4747006
0.5850452
0.6085542
0.5469984
0.4547366
0.3922411
0.3951748
0.4541873
0.5258304
0.5809073
0.6115463
0.6108804
0.5817169
0.5456418
0.5026124
0.4514989
0.3927845
0.2903442
0.1307451
-0.06694102
-0.2900776
-0.5051544
-0.6718448
-0.7861804
-0.8470669
-0.867449
-0.8468127
-0.7510523
-0.5973229
-0.3647885
-0.1263603
0.05995106
0.2412537
-0.1628072
-1.515719
-2.849615
-3.384684
-3.246939
-2.025434
0.6114134
3.456565
5.472299
6.477281
6.2618
5.187284
3.640229
1.696858
-0.1828157
-1.717176
-3.028657
-4.005912
-4.327869
-3.989871
-3.292379
-2.51358
-1.876779
-1.487079
-1.216482
-0.8508074
-0.2881762
0.3749884
0.9473871
1.398592
1.812737
2.180674
2.464561
2.635654
2.577031
2.200095
1.5784
0.8286327
0.0364636
-0.6911103
-1.201508
-1.457022
-1.635247
-1.800358
-1.829146
-1.708851
-1.500585
-1.216415
-0.8511916
-0.3905358
0.1591167
0.7630624
1.34959
1.781797
1.981325
1.968979
1.748418
1.338467
0.7852296
0.1255257
-0.5478212
-1.095298
-1.41668
-1.493586
-1.368186
-1.09671
-0.7455683
-0.3942805
-0.09945514
0.122175
0.2792663
0.3779957
0.4111525
0.4023241
0.3885382
0.3654549
0.3070665
0.1999318
0.05961616
-0.09362102
-0.2348949
-0.3219171
-0.3410946
-0.2937875
-0.1891187
-0.07015921
0.04198885
0.1500832
0.2538105
0.3596127
0.444547
0.4882815
0.5115685
0.4975141
0.3861258
0.1610305
-0.1250165
-0.3712785
-0.5166653
-0.5649974
-0.5241339
-0.4457372
-0.3848246
-0.3436382
-0.2997304
-0.2253186
-0.1545451
-0.1237857
-0.1041437
-0.06605922
-0.01608366
0.02296994
0.04116323
0.04662381
0.06718455
0.1130803
0.1729393
0.2199269
0.2556537
0.3217184
0.4092754
0.496919
0.5548814
0.5412416
0.4729715
0.3930435
0.2915496
0.1466437
0.002643869
-0.1176985
-0.2168054
-0.2841887
-0.3472425
-0.4138536
-0.4713675
-0.5136516
-0.5196187
-0.4868575
-0.4077371
-0.2829237
-0.1658184
-0.08934828
-0.05840283
-0.08756547
-0.1334636
-0.1352801
-0.1017659
-0.02960399
0.108616
0.3071553
0.5305039
0.7276978
0.847306
0.8543789
0.7650366
0.6084105
0.4031689
0.1960519
0.01984484
-0.1452988
-0.3077655
-0.4416877
-0.5366467
-0.59355
-0.6019698
-0.5507723
-0.46742
-0.3741238
-0.2493795
-0.0846076
0.09717107
0.2542922
0.3934309
0.5232131
0.5934262
0.5753404
0.463797
0.2860285
0.07984124
-0.1468039
-0.3667275
-0.551147
-0.6933812
-0.771588
-0.7595714
-0.6573717
-0.4841153
-0.2995318
-0.1539331
-0.02948532
0.07072072
0.1256912
0.1486033
0.1423285
0.1135355
0.08337676
0.05023198
0.01346445
-0.01185994
-0.007419016
0.03841465
0.09881485
0.1578184
0.2250452
0.2723157
0.3085546
0.3661782
0.4297305
0.5160083
0.6166934
0.6732168
0.677716
0.6241043
0.4995616
0.3300486
0.1417949
-0.03843651
-0.1661597
-0.2167949
-0.2168096
-0.1959248
-0.150114
-0.0937807
-0.06450531
-0.08568668
-0.1660135
-0.2960061
-0.4490455
-0.5827761
-0.6605335
-0.6846884
-0.6593159
-0.5767857
-0.452716
-0.3118844
-0.1690454
-0.02574233
0.1118978
0.218734
0.2823046
0.3159248
0.3201662
0.2936719
0.2489387
0.1871278
0.1051868
0.01054113
-0.07362337
-0.139092
-0.1926946
-0.2235821
-0.2125388
-0.1614384
-0.1094967
-0.07699211
-0.04971458
-0.032308
-0.02324308
-0.001462654
0.04941277
0.1249306
0.1905404
0.2463064
0.3220229
0.4047183
0.4702609
0.507561
0.4849369
0.3964486
0.2871687
0.1976873
0.1571706
0.1447245
0.1164092
0.07375638
0.005615715
-0.09060366
-0.1964554
-0.3157125
-0.4388152
-0.5530929
-0.6432979
-0.6751246
-0.6254876
-0.5111867
-0.3788724
-0.2494948
-0.1283883
-0.02887328
0.04849048
0.11064
0.1682887
0.2208329
0.2530622
0.2684524
0.2821015
0.3031472
0.3298832
0.3436954
0.3309964
0.2931082
0.2529587
0.2323726
0.2167083
0.1982329
0.1935436
0.1892883
0.139538
0.03864916
-0.07517962
-0.1760551
-0.2429712
-0.2674974
-0.272977
-0.2838973
-0.29833
-0.3025225
-0.3092855
-0.3425561
-0.3985686
-0.4387202
-0.4204422
-0.3298559
-0.1663898
0.04168646
0.2283362
0.3400374
0.3660909
0.3290904
0.2512517
0.1618427
0.1001922
0.0625779
0.03674505
0.03784439
0.05557291
0.07194307
0.09071454
0.1169712
0.1472989
0.1645449
0.1458024
0.08395557
0.007071826
-0.06952619
-0.1711541
-0.2853593
-0.3633699
-0.3816216
-0.3400232
-0.2537015
-0.1520188
-0.05302607
0.03373064
0.09238134
0.1469809
0.21666
0.2814057
0.3363329
0.3703735
0.3818376
0.391101
0.3945764
0.3748747
0.3447143
0.3110505
0.2410092
0.1149451
-0.068552
-0.2832362
-0.4596984
-0.5449076
-0.5421784
-0.4892747
-0.4142312
-0.3381968
-0.2885723
-0.2621123
-0.2380693
-0.2156377
-0.2012815
-0.1861549
-0.1306249
-0.02686952
0.08402859
0.2182789
0.3901302
0.5394425
0.6392169
0.6740329
0.6204444
0.5016404
0.3382348
0.154192
-0.008808102
-0.1221065
-0.1836124
-0.2230845
-0.2557046
-0.270432
-0.2722279
-0.2742023
-0.282076
-0.2830133
-0.2627109
-0.2425937
-0.237921
-0.2582733
-0.3075698
-0.348175
-0.3528743
-0.3137728
-0.2345184
-0.1233312
0.01248459
0.1413519
0.2612792
0.3722978
0.4374301
0.4743694
0.5363595
0.6211367
0.6848974
0.6880617
0.6169082
0.4786162
0.2898979
0.09127931
-0.07357378
-0.1759567
-0.2196045
-0.2585126
-0.3147694
-0.3822137
-0.4645169
-0.5279791
-0.5597615
-0.5620406
-0.509334
-0.4079014
-0.2894001
-0.1769896
-0.06119674
0.05909278
0.1476997
0.2080984
0.261641
0.3083812
0.3658372
0.4279281
0.453357
0.4233032
0.3445953
0.2480167
0.1523826
0.06038604
-0.007175504
-0.06192473
-0.1343626
-0.2441646
-0.3847232
-0.4866843
-0.519794
-0.4959643
-0.3904405
-0.2313765
-0.08020151
0.05141149
0.1424741
0.1811623
0.1870513
0.1576316
0.1183962
0.09865479
0.08741524
0.09445289
0.1091741
0.1076401
0.1048603
0.1224037
0.1619676
0.1968668
0.2129466
0.2135706
0.2011615
0.1949483
0.2001283
0.1924499
0.1760857
0.1682656
0.1499716
0.1119177
0.04600866
-0.05684013
-0.1690856
-0.2717927
-0.3634032
-0.4428449
-0.5173635
-0.5866109
-0.6245084
-0.5958344
-0.4974231
-0.3421393
-0.130425
0.09387395
0.2593858
0.344397
0.3492288
0.2913397
0.2151978
0.1400933
0.06564996
0.003641208
-0.03635432
-0.04513308
-0.02190658
0.03141789
0.1321143
0.2603632
0.3533238
0.3597029
0.2822056
0.1625062
0.02263904
-0.1096614
-0.2032865
-0.2421206
-0.2240086
-0.1788501
-0.1262131
-0.0649993
-0.01074584
0.02324473
0.04474914
0.06731558
0.1041997
0.133689
0.1316044
0.1183888
0.09161881
0.04358218
-0.009694783
-0.05371938
-0.07104289
-0.0667512
-0.04987941
-0.01896132
0.01191281
0.03314893
0.05625515
0.08090079
0.09666173
0.1102903
0.1162528
0.1041491
0.07218788
0.02320878
-0.02370887
-0.06596968
-0.1089908
-0.1563186
-0.2186289
-0.2833943
-0.3333798
-0.359152
-0.3473231
-0.2918454
-0.1951699
-0.06521667
0.07658606
0.2063477
0.3147809
0.3719053
0.3558876
0.2853636
0.1793129
0.08169875
0.02534435
-0.01279393
-0.03808919
-0.04876403
-0.06548589
-0.09073047
-0.1203501
-0.1494059
-0.1607465
-0.1301821
-0.0639044
-0.004684695
0.03369055
0.05537973
0.06387422
0.06875622
0.06954418
0.06541239
0.06568801
0.09096092
0.1558057
0.2459482
0.3082905
0.2969712
0.2137504
0.0926315
-0.02627749
-0.1443464
-0.2593823
-0.3183663
-0.3053263
-0.2605305
-0.2085705
-0.1454075
-0.07329012
-0.02135519
-0.009086645
-0.02117437
-0.0369867
-0.03745187
-0.01463475
0.02519548
0.07359102
0.1189571
0.155205
0.1767218
0.181343
0.157059
0.06968934
-0.076774
-0.2297771
-0.3497753
-0.4248812
-0.44626
-0.4025623
-0.2901842
-0.1327083
0.01363939
0.1268276
0.2277692
0.3266502
0.4206056
0.4985246
0.5587841
0.599126
0.602963
0.5705425
0.5283937
0.4820571
0.411587
0.3250832
0.238839
0.1409998
0.01160529
-0.1369769
-0.2857799
-0.4299541
-0.5500748
-0.6563865
-0.7540808
-0.8062977
-0.816082
-0.809384
-0.7952651
-0.7716309
-0.7248551
-0.6419708
-0.5237176
-0.3956104
-0.2785801
-0.1610568
-0.01682257
0.1415466
0.2826843
0.4083789
0.5283134
0.6568984
0.7924407
0.9169741
1.02943
1.14142
1.260078
1.336555
1.29142
1.091687
0.7635227
0.3509149
-0.1141163
-0.5643302
-0.9329902
-1.199012
-1.327705
-1.297858
-1.140002
-0.9201301
-0.7033446
-0.5207775
-0.3962092
-0.306399
-0.1919558
-0.04525463
0.1296926
0.33813
0.535225
0.6752452
0.7977228
0.9017453
0.9292886
0.8348188
0.6150594
0.3846246
0.1685852
0.00276172
-0.1511235
-0.6239372
-1.394444
-2.055172
-2.320873
-2.146728
-1.654954
-0.9281545
-0.05297941
0.8274345
1.547059
1.97775
2.190115
2.358795
2.513999
2.557242
2.438284
2.176988
1.802872
1.284119
0.5566846
-0.3359532
-1.284885
-2.179173
-2.943586
-3.549634
-3.86366
-3.745997
-3.209929
-2.360189
-1.377161
-0.4594657
0.2424833
0.6721699
0.7911755
0.5798219
0.1882235
-0.2121352
-0.4714489
-0.4916311
-0.3524911
-0.1617782
0.05067323
0.4404678
1.19588
2.196763
3.16082
3.856998
4.215294
4.362256
4.271242
3.740678
2.732821
1.393945
0.0133183
-1.159249
-2.025187
-2.500125
-2.586734
-2.375
-1.967188
-1.556743
-1.389157
-1.608022
-2.183964
-2.971494
-3.759228
-4.274932
-4.314149
-3.859942
-3.02423
-1.983968
-0.8537351
0.2962461
1.302407
2.120258
2.771927
3.216823
3.52123
3.684882
3.622989
3.334863
2.86513
2.326722
1.855944
1.519705
1.279197
1.056416
0.8540231
0.6854159
0.5250207
0.3521372
0.1223054
-0.1862871
-0.5576068
-0.9674468
-1.355601
-1.688831
-1.970262
-2.188962
-2.310956
-2.296547
-2.154551
-1.908945
-1.593479
-1.267131
-0.951313
-0.6494049
-0.3743657
-0.1244475
0.09993857
0.2793838
0.4006569
0.4780826
0.5368416
0.6038864
0.6929743
0.7767441
0.8272117
0.8567758
0.8757297
0.8718933
0.8474328
0.79005
0.6775719
0.5529358
0.4417389
0.324294
0.2161608
0.1268751
0.06630836
0.02315566
-0.01044095
0.0116435
0.03386263
-0.02823575
-0.1566234
-0.3298303
-0.5187521
-0.6670006
-0.7241284
-0.6709114
-0.5485247
-0.3969707
-0.2165379
-0.04484169
0.08904507
0.2230823
0.3359582
0.3703614
0.3360695
0.2402445
0.08718076
-0.06642336
-0.1575502
-0.1684567
-0.1323818
-0.1107638
-0.1349865
-0.1793927
-0.2134198
-0.2094508
-0.1361806
-0.008474455
0.1059073
0.1489951
0.1383976
0.1130772
0.08557579
0.09227535
0.1436287
0.2161645
0.3088054
0.4033296
0.4462207
0.3579727
0.1240121
-0.1518673
-0.3828315
-0.5220569
-0.5332765
-0.4541229
-0.3236802
-0.1347735
0.08122914
0.2710181
0.3912705
0.3989023
0.3052114
0.1565915
-0.0343149
-0.2342143
-0.3815466
-0.4378211
-0.3688024
-0.2010985
-0.02142293
0.1286983
0.2267208
0.2693394
0.2888239
0.2720567
0.2041922
0.1293088
0.07460057
0.02915305
-0.01642605
-0.05125797
-0.04608014
-0.01440382
0.01196878
0.04437629
0.08518258
0.1169197
0.1191569
0.07384948
-0.01478643
-0.1184603
-0.175835
-0.1574949
-0.1134029
-0.07062928
-0.02001438
0.01590776
0.006338226
-0.05334696
-0.1279536
-0.1691185
-0.1527838
-0.089315
-0.008025108
0.0646682
0.1002773
0.08676281
0.03141317
-0.0547005
-0.1373938
-0.1707815
-0.1603911
-0.1386325
-0.09669387
-0.03306643
0.05260311
0.1683957
0.2737506
0.3274977
0.3106497
0.2255093
0.09333093
-0.0659119
-0.2113602
-0.3037179
-0.3337866
-0.3187719
-0.2669899
-0.1754512
-0.07476279
-0.002374991
0.02299342
0.00816982
-0.007405289
0.01828949
0.08393566
0.152656
0.2273081
0.320239
0.3989374
0.4290282
0.3901279
0.2860925
0.1455814
-0.00696502
-0.1428122
-0.2464654
-0.3320487
-0.3759358
-0.3417641
-0.2551866
-0.163509
-0.09703037
-0.05038571
-0.01133661
0.004459519
0.008954114
0.02973384
0.05594892
0.07876505
0.1156521
0.1785179
0.2425676
0.2579409
0.2195989
0.156758
0.08036319
0.01078247
-0.03647118
-0.07450517
-0.08835304
-0.07881689
-0.07830209
-0.05996316
-0.006556487
0.06418027
0.1417168
0.1926387
0.2103642
0.2093248
0.1765161
0.1008022
-0.01846103
-0.1541097
-0.2661499
-0.3413868
-0.3656087
-0.3442668
-0.3055361
-0.2499634
-0.1819054
-0.1070829
-0.01977996
0.05665172
0.09993207
0.1187457
0.1260947
0.1331927
0.1529275
0.1763691
0.1790809
0.1510568
0.1012365
0.05290259
0.001292494
-0.07132727
-0.1388469
-0.1849703
-0.2148368
-0.2157902
-0.199119
-0.1884366
-0.1725641
-0.156494
-0.166792
-0.1660762
-0.1038961
-0.004959295
0.08076029
0.1237027
0.1288956
0.1201769
0.1104135
0.1091193
0.1122571
0.1038107
0.08892953
0.08839898
0.1047676
0.129179
0.1601215
0.2082512
0.2702571
0.3197144
0.3627474
0.4007936
0.390514
0.3280045
0.2306293
0.1009212
-0.01009759
-0.05129307
-0.02347594
0.04305733
0.1110209
0.1476436
0.121946
0.02254628
-0.1187232
-0.2696798
-0.46713
-0.6517913
-0.9220703
-1.740149
-2.995286
-3.801182
-3.832077
-3.375402
-1.812968
1.240873
4.266461
6.051081
6.734994
6.456538
5.427674
3.868006
1.916741
0.07914285
-1.511974
-3.125136
-4.46868
-5.143495
-5.198276
-4.795623
-4.166129
-3.494953
-2.703181
-1.666016
-0.3831683
1.008798
2.254918
3.19904
3.864116
4.260505
4.350162
4.119578
3.611929
2.931664
2.175376
1.384504
0.5617862
-0.263492
-1.054084
-1.78828
-2.416424
-2.880163
-3.114577
-3.110564
-2.91561
-2.550288
-2.060502
-1.509874
-0.9522582
-0.4382919
0.00392736
0.3475123
0.5869862
0.7337636
0.8002393
0.8083677
0.7567525
0.6483586
0.5258493
0.4290698
0.3755064
0.3675314
0.3855771
0.4151847
0.4622517
0.5203455
0.5687377
0.5942839
0.5996018
0.6090593
0.6379212
0.677258
0.7337491
0.7909663
0.8024021
0.7617585
0.6656888
0.5019011
0.2774793
-0.01111085
-0.3424632
-0.6635672
-0.9464983
-1.174883
-1.322268
-1.369429
-1.332473
-1.240864
-1.103854
-0.9259618
-0.7202334
-0.5027052
-0.2809083
-0.0857162
0.0645165
0.186938
0.2536131
0.2608145
0.2538221
0.2642078
0.3142273
0.3712144
0.4062776
0.4383313
0.4682203
0.4851236
0.4913025
0.5088721
0.5293653
0.5264881
0.5097889
0.4686711
0.3913542
0.2759098
0.1102215
-0.07723257
-0.2548201
-0.4061705
-0.5127244
-0.5684967
-0.5818306
-0.5518757
-0.4398191
-0.268264
-0.1008912
0.04558507
0.1449371
0.1992363
0.2239852
0.214428
0.1783167
0.1306773
0.1025481
0.09926421
0.1104267
0.1268817
0.1352198
0.1297994
0.08058498
-0.0233079
-0.1510747
-0.2601477
-0.3192653
-0.3534406
-0.385714
-0.4005632
-0.3971127
-0.3823975
-0.3579959
-0.2854559
-0.1267481
0.07047486
0.2521503
0.3932306
0.4716313
0.4734771
0.3923351
0.2658918
0.1645274
0.1236975
0.1273215
0.1648637
0.2325951
0.3065882
0.3517969
0.3163691
0.199714
0.05762653
-0.09363928
-0.2625583
-0.4378422
-0.5708741
-0.6191481
-0.5980217
-0.5281429
-0.4124594
-0.2447759
-0.04104236
0.1399532
0.263811
0.3406354
0.3623871
0.3194051
0.2487467
0.1787993
0.1316498
0.1398381
0.1855682
0.2222463
0.2174375
0.164119
0.07732844
-0.02420486
-0.1166475
-0.1738265
-0.1733171
-0.1267646
-0.06085968
0.0134195
0.06423726
0.06830546
0.03651211
-0.01967371
-0.09409416
-0.1705703
-0.2199188
-0.2338636
-0.2238695
-0.1869884
-0.1312167
-0.07674234
-0.02359129
0.01281981
0.01923727
0.016838
0.01264319
0.01547562
0.0293849
0.04739122
0.07704885
0.09621243
0.09310634
0.07743765
0.03672309
-0.02259664
-0.08234423
-0.1250721
-0.1258848
-0.09082357
-0.03781814
0.02747237
0.09045002
0.1422743
0.1725851
0.1778768
0.1705304
0.1372837
0.07166088
-0.002448729
-0.08058221
-0.1509959
-0.1840183
-0.1972666
-0.2066123
-0.1908579
-0.1544114
-0.09494612
0.008096974
0.1258244
0.2268201
0.3082391
0.3456935
0.3421713
0.3273805
0.3097205
0.2850772
0.2264794
0.1370476
0.04955171
-0.02614789
-0.08817791
-0.1390547
-0.1697164
-0.1840885
-0.1923285
-0.1681366
-0.1155128
-0.08312119
-0.08715186
-0.1228029
-0.2044213
-0.3153985
-0.4016734
-0.4376834
-0.438862
-0.4068403
-0.3364916
-0.2278601
-0.07389247
0.07700998
0.2707307
0.4251513
0.5276156
0.6595562
0.4512958
0.6408901
1.500886
1.333965
0.3343297
-0.297555
-0.7663225
-1.194684
-1.393058
-1.287047
-0.9620758
-0.5773467
-0.1799199
0.2052556
0.5053689
0.6714383
0.7189263
0.6614952
0.5241561
0.3668942
0.2167966
0.05520498
-0.1030334
-0.2205935
-0.277391
-0.2629017
-0.2000098
-0.1271528
-0.06004698
-0.01444857
-0.02163569
-0.07642294
-0.1310773
-0.1633383
-0.1782746
-0.17676
-0.1509536
-0.0825385
0.036725
0.1817794
0.3169033
0.413523
0.4472122
0.4183744
0.3533732
0.2815828
0.2258334
0.1803181
0.1062032
-0.01049538
-0.1407106
-0.262854
-0.3654926
-0.4147989
-0.3981197
-0.3295773
-0.1955366
-0.01970719
0.1301914
0.2272837
0.2634424
0.2381764
0.1811994
0.1143543
0.04167888
-0.024111
-0.08953419
-0.1754145
-0.2666717
-0.3453597
-0.4107081
-0.4454608
-0.4244246
-0.3376882
-0.2025717
-0.04578041
0.1067598
0.2380716
0.3505803
0.4379328
0.4893249
0.4896819
0.4275495
0.3186961
0.1722851
0.003815575
-0.1460682
-0.2534223
-0.3082278
-0.308374
-0.26758
-0.211151
-0.165387
-0.1263909
-0.08129502
-0.03230308
0.02953514
0.1147598
0.2135959
0.3102341
0.3735897
0.3619518
0.272188
0.1355771
-0.008177009
-0.1238642
-0.1841669
-0.1804747
-0.1384959
-0.09344325
-0.07829463
-0.1001527
-0.1280235
-0.1281797
-0.09135659
-0.0491626
-0.03889132
-0.07213639
-0.1299967
-0.1767213
-0.1997047
-0.1973066
-0.1733028
-0.1400633
-0.09298888
-0.007203069
0.1186015
0.2381115
0.3265104
0.4007181
0.4549456
0.4682942
0.4441538
0.3813079
0.2848189
0.1846772
0.08777163
0.004545441
-0.03770719
-0.06431098
-0.1139774
-0.1795109
-0.2719075
-0.3401541
-0.3639018
-0.339655
-0.1359339
0.003962827
0.2496046
1.022089
1.72104
2.107813
1.189625
-1.996093
-4.558268
-4.281019
-2.70422
-0.9657528
0.7666653
1.874829
1.957619
1.332053
0.5421491
-0.1048018
-0.4593834
-0.4402078
-0.1083632
0.3371575
0.7175768
0.9829379
1.144889
1.192609
1.101121
0.8690963
0.5328779
0.1735003
-0.1385316
-0.3716535
-0.4796617
-0.4592806
-0.3907029
-0.357506
-0.3827975
-0.4397716
-0.4863496
-0.4584315
-0.3477806
-0.1809825
0.07843784
0.3336791
0.4267747
0.5008215
0.4931886
0.2654258
0.21373
0.1308738
-0.3678244
-0.7825537
-0.9253108
-0.9894199
-0.9892477
-0.9143124
-0.7535974
-0.5715362
-0.3932293
-0.207179
-0.03629558
0.1228857
0.2806391
0.4362433
0.5727434
0.6560622
0.6733165
0.6515615
0.5987399
0.5204763
0.4634307
0.4432749
0.4456567
0.4480364
0.4220565
0.3822283
0.3481535
0.322037
0.3132595
0.3148354
0.2783023
0.1587131
-0.01696327
-0.2142932
-0.4240316
-0.6155149
-0.776005
-0.8963296
-0.9527817
-0.9339681
-0.8324928
-0.6633841
-0.4737423
-0.3063164
-0.1538012
-0.001498369
0.1299819
0.2121971
0.2421853
0.2586901
0.2888862
0.3215348
0.3289402
0.3197338
0.3285341
0.3564819
0.3984001
0.4422438
0.480175
0.5105348
0.5153251
0.4799326
0.3936557
0.2788679
0.175682
0.08231265
-0.01724775
-0.1150104
-0.2079743
-0.3069141
-0.4000921
-0.4796652
-0.5628735
-0.6507319
-0.7235776
-0.7661366
-0.7765408
-0.7422813
-0.6532382
-0.5343356
-0.4123476
-0.2969937
-0.1701083
-0.007204136
0.1537961
0.2698267
0.3783736
0.5379066
0.7397682
0.8979808
0.9326601
0.839498
0.6709425
0.4977595
0.3494659
0.2090071
0.07833778
-0.01598124
-0.06307154
-0.0735876
-0.04607872
0.005325558
0.03021604
0.006122971
-0.07335656
-0.1760781
-0.2382625
-0.273201
-0.2962647
-0.2813444
-0.2225875
-0.1271919
-0.04906699
-0.03293737
-0.04652577
-0.08061091
-0.1385675
-0.1825789
-0.2028009
-0.215963
-0.2306073
-0.2354864
-0.210207
-0.154094
-0.06461153
0.04677734
0.1467985
0.2290919
0.2857006
0.2848711
0.2141371
0.1011314
-0.008093745
-0.08423954
-0.1072868
-0.07891885
-0.02154434
0.06077947
0.1588367
0.2576962
0.3569456
0.4411264
0.4797546
0.4562458
0.3515595
0.1476234
-0.109465
-0.3416175
-0.5180805
-0.6272825
-0.6471164
-0.5764813
-0.4660372
-0.356417
-0.2279635
-0.07403278
0.1086907
0.3232988
0.5111166
0.622073
0.649389
0.584842
0.4327712
0.2345887
0.04225376
-0.1308939
-0.2571556
-0.2760612
-0.1829055
-0.03347696
0.0836961
0.1174522
0.0774966
-0.02089857
-0.127493
-0.1894715
-0.1904725
-0.1554633
-0.1644472
-0.2597586
-0.4156325
-0.5801662
-0.6779677
-0.6693044
-0.5743335
-0.4097756
-0.1864545
0.05794868
0.2687044
0.4029906
0.4500212
0.4302081
0.3784667
0.3149377
0.2575533
0.2356406
0.2465508
0.2817085
0.3563582
0.455556
0.532992
0.5575235
0.5418875
0.5052301
0.4149697
0.2389831
0.003131414
-0.2433559
-0.4551019
-0.5984177
-0.6833264
-0.7420287
-0.7638059
-0.7142768
-0.599432
-0.4726654
-0.3700863
-0.2752892
-0.1692434
-0.03636099
0.1341075
0.318588
0.492691
0.6132295
0.6211073
0.5453436
0.4564231
0.3852077
0.3556447
0.3599612
0.3547859
0.3249925
0.2857271
0.2298463
0.1464678
0.04940314
-0.05030928
-0.1405012
-0.2339083
-0.3467692
-0.4515887
-0.5339268
-0.5982034
-0.6390551
-0.6518972
-0.62566
-0.5564236
-0.448581
-0.3126378
-0.1899098
-0.1130304
-0.07927552
-0.05908626
-0.02984686
0.01418101
0.06450665
0.1205681
0.1927746
0.2485369
0.4921031
0.9165983
1.008324
0.7796366
0.5091496
0.2328552
0.05367037
-0.0600146
-0.1738342
-0.2401557
-0.1935969
-0.008325686
0.2315147
0.3767443
0.405909
0.4143672
0.3829405
0.2953976
0.1701074
-0.000429922
-0.1564562
-0.2889666
-0.4545507
-0.6513658
-0.8393989
-0.9951722
-1.098954
-1.137906
-1.133703
-1.060366
-0.8576571
-0.5585006
-0.2244725
0.1315454
0.4676106
0.7397025
0.9875515
1.220143
1.372057
1.469412
1.548957
1.519523
1.346692
1.103371
0.834362
0.505036
-0.01469471
-0.7573499
-1.496439
-1.999951
-2.225065
-2.171244
-1.831875
-1.289726
-0.6425388
0.04943393
0.7239392
1.305708
1.688319
1.867942
1.926444
1.87859
1.724357
1.457233
1.069644
0.5899466
0.07319475
-0.4609103
-1.047109
-1.655685
-2.221953
-2.715403
-3.025277
-3.004206
-2.651875
-2.019999
-1.182904
-0.326181
0.4043878
0.8737288
1.005954
0.9436966
0.8657669
0.8232732
0.7713501
0.7456874
0.6402202
0.2871814
-0.04760573
-0.0664321
0.3805737
1.404747
2.871312
4.301722
4.900869
4.199601
2.617843
1.019459
-0.1455307
-0.913642
-1.378641
-1.659686
-1.788679
-1.693797
-1.413491
-1.110599
-1.036888
-1.296121
-1.778856
-2.447347
-3.168667
-3.578439
-3.468709
-2.898623
-2.023516
-1.073281
-0.2964471
0.1698317
0.3416229
0.3314896
0.2596334
0.2671241
0.5106596
0.9743554
1.504288
2.037472
2.513183
2.803146
2.907776
2.89626
2.754516
2.493957
2.148276
1.750858
1.357754
0.972476
0.5893667
0.1990484
-0.2226508
-0.6451235
-1.038156
-1.412449
-1.692831
-1.814666
-1.845262
-1.790531
-1.711129
-1.67696
-1.553156
-1.310613
-1.013679
-0.6516238
-0.3046496
-0.0764275
0.08509714
0.2359327
0.3182577
0.3675186
0.4364141
0.4453529
0.3899116
0.3314573
0.278671
0.2207654
0.0848742
-0.131795
-0.2717761
-0.2828073
-0.214562
-0.06194349
0.1320587
0.2945563
0.3950486
0.410715
0.3503981
0.2649974
0.178219
0.09830678
0.007824739
-0.1140182
-0.1664311
-0.154366
-0.1159265
0.1479606
0.5479677
0.6896898
0.5536456
0.3232488
0.02905924
-0.1944202
-0.2341925
-0.2766537
-0.3709443
-0.4083013
-0.4284901
-0.4294672
-0.4156859
-0.3403666
-0.08318491
0.2604974
0.5661961
0.8258073
0.9785471
0.9876344
0.8865506
0.7336976
0.581871
0.3382931
0.004622955
-0.3138274
-0.6301475
-0.8604529
-1.006992
-1.068425
-0.914042
-0.7281365
-0.551129
-0.2202072
-0.02149267
-0.09225106
-0.1758758
-0.204935
-0.1649878
-0.07843217
-0.01675269
0.07910844
0.2022978
0.2767505
0.3114275
0.4475557
0.641145
0.6332551
0.4694676
0.3242521
0.1783176
0.02595295
-0.0872217
-0.1331373
-0.07385141
0.02235433
0.08893459
0.1778637
0.3112929
0.4674549
0.5198537
0.4146372
0.2407126
-0.03426285
-0.3297367
-0.5230416
-0.7060632
-0.8041209
-0.7268376
-0.6569937
-0.6323429
-0.5697283
-0.463587
-0.3352762
-0.2703975
-0.1711574
0.01522043
0.1113217
0.1034235
0.1172292
0.2507494
0.3772702
0.4732374
0.599488
0.5961308
0.6394877
0.8134014
0.8440443
0.6924351
0.5706491
0.5285944
0.2832161
-0.05781493
-0.2648035
-0.4296031
-0.4979874
-0.5312511
-0.5672215
-0.5253093
-0.4173067
-0.2024481
-0.0867796
-0.176801
-0.2449063
-0.2817533
-0.3374731
-0.3468783
-0.3240136
-0.3071554
-0.2353515
-0.08938581
0.01512291
0.07887691
0.1607069
0.2197188
0.2676376
0.3518679
0.4231255
0.4531882
0.477095
0.3788012
0.1713441
0.04784464
-0.02255317
-0.07477155
-0.08152764
-0.08770218
-0.1233021
-0.1455521
-0.09994444
-0.09520895
-0.1721278
-0.212728
-0.2304265
-0.231765
-0.1087599
0.01160566
-0.02131736
-0.04371638
-0.006449674
0.09703261
0.2962453
0.4210289
0.4526467
0.4407996
0.383131
0.2734765
0.06448895
-0.1101858
-0.169658
-0.2237756
-0.2580349
-0.2494884
-0.2546838
-0.2256599
-0.1371652
-0.04713514
-0.00901462
-0.02830744
-0.04155688
-0.06462352
-0.09919781
-0.08187479
-0.05111345
0.007092835
0.1448659
0.2349336
0.2316156
0.2403121
0.1784002
0.05349806
0.01486671
-0.09925064
-0.2397336
-0.1384458
-0.09161203
-0.2300059
-0.1812854
0.01608508
0.1093023
0.1462551
0.2276244
0.2592404
0.155093
0.0258378
-0.05668345
-0.07971273
-0.08012267
-0.1670731
-0.2304541
-0.1631242
-0.1138907
-0.1278711
-0.1441292
-0.1064703
0.1068613
0.3558082
0.4183446
0.3651286
0.21006
-0.003170776
-0.205685
-0.4668011
-0.633092
-0.6764219
-0.7325994
-0.6789272
-0.5709793
-0.4502596
-0.1561615
0.1475609
0.3720441
0.6268363
0.8251957
0.8787993
0.8398131
0.8267696
0.7820789
0.6566678
0.5855996
0.5341298
0.4694698
0.3682222
0.1410319
-0.1096489
-0.3124382
-0.4286226
-0.4681336
-0.5425892
-0.5597639
-0.4638444
-0.3382578
-0.2181903
-0.1895301
-0.2328444
-0.227136
-0.2794288
-0.4381419
-0.4998705
-0.7955555
-1.977368
-3.362688
-3.702289
-3.426042
-2.704384
-0.2508436
3.397577
6.262956
7.572938
7.493252
6.522402
4.893709
2.647405
0.406588
-1.386452
-2.913846
-4.144084
-4.818425
-4.869901
-4.455594
-3.893904
-3.374496
-2.789052
-2.041309
-1.201158
-0.2453872
0.7623391
1.512397
1.919467
2.134984
2.273424
2.311554
2.132574
1.897167
1.667676
1.193468
0.6597677
0.3991324
0.3358046
0.3065053
0.3104581
0.4629183
0.6686208
0.655468
0.3544891
-0.1199236
-0.6224294
-1.109401
-1.534836
-1.794149
-1.922293
-1.933641
-1.798286
-1.541091
-1.147125
-0.674255
-0.2285129
0.1179162
0.2967598
0.3679901
0.4697598
0.6033521
0.6759255
0.6615748
0.6642327
0.7486471
0.7756368
0.7125296
0.6584967
0.5622604
0.4368803
0.3506438
0.2684532
0.1562531
-0.0431188
-0.2653117
-0.3578229
-0.3398826
-0.2529372
-0.1256888
0.007992449
0.2410758
0.5231403
0.6617104
0.6791223
0.6413472
0.5024745
0.2815866
0.06232691
-0.126762
-0.3156798
-0.4978586
-0.6470298
-0.7701635
-0.8322891
-0.7835775
-0.6356559
-0.4646113
-0.356568
-0.2915578
-0.213204
-0.1337031
-0.05964604
0.01894134
0.1001715
0.2059943
0.3401936
0.4335417
0.4106866
0.3050334
0.2118071
0.1061115
-0.05792616
-0.1927233
-0.2193186
-0.1640792
-0.1015695
-0.08235443
-0.1203407
-0.1886934
-0.2387056
-0.2608328
-0.2373351
-0.1428412
-0.02280399
0.06309671
0.1211162
0.1885411
0.2885393
0.4133381
0.4972243
0.4799509
0.3802815
0.2635628
0.1717825
0.1039481
0.05909044
0.02151952
0.002724476
0.02821553
0.04439081
0.04504196
0.07556303
0.1108985
0.1208766
0.1199878
0.1138456
0.09389279
0.06370858
0.01724886
-0.02593369
-0.05943613
-0.1031225
-0.1197107
-0.1176802
-0.1466462
-0.1772295
-0.1711999
-0.1554427
-0.1794879
-0.2620992
-0.3857374
-0.5260577
-0.6606848
-0.7514015
-0.7847766
-0.7361158
-0.5623679
-0.3108291
-0.061674
0.1381571
0.2741387
0.3571071
0.4003965
0.4276325
0.4305177
0.4147121
0.4302974
0.4735773
0.5236691
0.5848793
0.6498763
0.6894535
0.6753403
0.6364929
0.5927683
0.5108477
0.3610834
0.1388254
-0.1142801
-0.3518917
-0.5536101
-0.6968246
-0.774352
-0.8004828
-0.7888358
-0.7562347
-0.6768559
-0.5021682
-0.2782445
-0.07970854
0.08179997
0.2077882
0.2801973
0.2862305
0.2628198
0.2497936
0.2588201
0.3004894
0.3458103
0.3648106
0.3721637
0.3697677
0.3317347
0.2350267
0.08299757
-0.09605191
-0.2890637
-0.4826141
-0.6262248
-0.6985744
-0.7236872
-0.7065359
-0.6389129
-0.5233779
-0.3657269
-0.1756176
0.0253785
0.2106869
0.3498946
0.4250254
0.4636695
0.4790757
0.4565428
0.4590244
0.5331549
0.6081648
0.6497858
0.6579692
0.5869772
0.4385269
0.2558647
0.08570713
-0.02592659
-0.09034447
-0.15013
-0.2348332
-0.3610527
-0.5223085
-0.7009051
-0.848265
-0.8900719
-0.8369919
-0.7394688
-0.5989761
-0.3877385
-0.03322465
0.3734092
0.5391291
0.382736
0.142182
0.04774588
0.09902939
0.1892105
0.2541646
0.2555806
0.2047714
0.1490354
0.09701259
0.04634654
0.01909186
0.02220726
0.03472564
0.03405614
0.01526047
-0.006863328
-0.009178156
0.03446835
0.1316407
0.259657
0.3758771
0.4477957
0.4753523
0.4558168
0.3969828
0.330934
0.2645037
0.1591269
-0.0123345
-0.2037185
-0.3685366
-0.4941144
-0.5738735
-0.6219162
-0.6379386
-0.615051
-0.556622
-0.472032
-0.3785007
-0.2739455
-0.1551105
-0.03230386
0.06579539
0.1068235
0.1006886
0.06675392
0.02188585
-0.00953724
-0.01607321
0.0140657
0.0849597
0.1975155
0.3285242
0.4370445
0.5059347
0.5171509
0.4811214
0.42185
0.3503278
0.2842385
0.2230053
0.1647176
0.1146778
0.06909137
0.0123939
-0.07208194
-0.1806256
-0.3018375
-0.4337046
-0.5601289
-0.6452593
-0.6776326
-0.669972
-0.6007554
-0.4342808
-0.2077716
-0.006845042
0.1315561
0.2283998
0.3009982
0.3332776
0.3197255
0.2916334
0.2498171
0.1839407
0.1262487
0.07716945
0.02583831
-0.005841886
-0.01189632
-0.001750579
0.02134925
0.06351933
0.1304922
0.2385771
0.3823415
0.5091208
0.5784485
0.5653859
0.4598723
0.2829553
0.08255959
-0.09033144
-0.2217613
-0.307291
-0.354091
-0.374974
-0.3659333
-0.3566415
-0.3810267
-0.4244238
-0.4516295
-0.4614887
-0.4773611
-0.4855975
-0.4623634
-0.4069793
-0.3355359
-0.2633011
-0.1712101
-0.04194134
0.1127821
0.2712938
0.4038743
0.493481
0.5335015
0.5212002
0.4715226
0.401093
0.3199531
0.23546
0.1826841
0.2096457
0.2999428
0.3942054
0.4404033
0.4095306
0.3055134
0.139464
-0.07145851
-0.2935703
-0.4730179
-0.5644557
-0.5695139
-0.5075319
-0.4089474
-0.2979893
-0.1779555
-0.0745607
-0.01476193
0.01020228
0.01628227
0.002989999
-0.006943926
0.0231822
0.0764003
0.1236629
0.1588709
0.1722946
0.1637335
0.1150624
0.01371336
-0.1037532
-0.2194766
-0.3173889
-0.3593528
-0.3447089
-0.2811425
-0.1579542
0.002645543
0.1542155
0.2748213
0.3532231
0.3771669
0.3401116
0.2602336
0.1749233
0.0946283
0.03425484
0.01949752
0.04837161
0.1019323
0.1437542
0.153945
0.140095
0.1035247
0.04295448
-0.04515439
-0.1498692
-0.2483026
-0.3331094
-0.3924464
-0.4029024
-0.3608055
-0.2935249
-0.2354122
-0.1858612
-0.1279462
-0.06544388
-0.005602249
0.05029574
0.1181478
0.2137615
0.3298069
0.4533038
0.5616891
0.627043
0.6428303
0.5956984
0.4597211
0.2595311
0.0375206
-0.1883552
-0.3977346
-0.5793624
-0.7278382
-0.8122014
-0.7991006
-0.6876355
-0.4947202
-0.262737
-0.03059535
0.2079596
0.4434522
0.6188517
0.6928214
0.6776139
0.5872461
0.4179269
0.2016492
-0.001429132
-0.1588722
-0.2620019
-0.3132613
-0.3223606
-0.2962007
-0.2623478
-0.2469426
-0.2479682
-0.2557591
-0.2665499
-0.2768665
-0.2669355
-0.2419667
-0.2257084
-0.1921232
-0.1066768
0.009018409
0.1083125
0.1930069
0.2850006
0.3575208
0.4066199
0.4751941
0.5614262
0.621256
0.6055048
0.4915098
0.324191
0.1662481
0.05435105
-0.01282442
-0.06498432
-0.1162322
-0.1745586
-0.2379381
-0.2965144
-0.3512968
-0.408502
-0.4571702
-0.4770279
-0.4588236
-0.3861668
-0.2717425
-0.1453776
-0.02023823
0.1008245
0.2045342
0.2489909
0.2475792
0.2498338
0.2433186
0.2026821
0.1493186
0.09321338
0.02901123
-0.00294029
0.01091538
0.02613283
0.01920389
0.001222939
-0.02962834
-0.08034527
-0.128406
-0.1619525
-0.1740043
-0.143872
-0.07060019
0.03215516
0.1629724
0.3222992
0.4670557
0.5246536
0.4599668
0.2874515
0.04377885
-0.2176604
-0.4362509
-0.57235
-0.6120528
-0.5522184
-0.4235934
-0.2763634
-0.1452012
-0.06313554
-0.01209485
0.04335173
0.08809431
0.1286922
0.1860124
0.24058
0.2690318
0.2655956
0.2337828
0.2020847
0.1849352
0.1692271
0.1613075
0.1567265
0.1402237
0.1113759
0.06664548
0.005779038
-0.07351819
-0.1661029
-0.2528242
-0.3414082
-0.4192776
-0.4374279
-0.3862472
-0.2869949
-0.1863226
-0.1214645
-0.06905808
-0.0004071085
0.08647047
0.16781
0.2250114
0.2727617
0.3154639
0.3693602
0.4694522
0.5996484
0.6902337
0.6730912
0.5378426
0.3226113
0.06527052
-0.2165345
-0.4888556
-0.6837115
-0.7693843
-0.7463565
-0.647337
-0.5510719
-0.4857682
-0.4354291
-0.3857702
-0.3165483
-0.2230286
-0.1214752
-0.03103228
0.05223859
0.1325511
0.1910087
0.2336525
0.3045001
0.4259007
0.5673079
0.6579249
0.696945
0.752686
0.8087568
0.8169288
0.7518569
0.6151555
0.4287476
0.223396
0.03984568
-0.2056804
-0.6116098
-1.157057
-1.690298
-1.970909
-1.961957
-1.745427
-1.316829
-0.7194131
-0.02648512
0.6860095
1.268386
1.593259
1.657181
1.550825
1.372216
1.155578
0.9162041
0.703512
0.5282309
0.3559604
0.1780432
-0.02546319
-0.2877295
-0.604966
-0.9519684
-1.278603
-1.559942
-1.773553
-1.785037
-1.565394
-1.247565
-0.8805277
-0.572149
-0.4265641
-0.2720878
0.1246549
0.8127657
1.59506
2.137293
2.284662
2.170487
1.942391
1.597762
1.123431
0.5515875
-0.04211143
-0.5240102
-0.7534521
-0.6577963
-0.3012178
0.1605631
0.5855759
0.858345
0.8500923
0.4911852
-0.1666276
-1.002113
-1.826502
-2.446377
-2.764278
-2.788774
-2.604476
-2.304455
-1.942819
-1.53518
-1.084542
-0.566062
0.04156064
0.7170528
1.422757
2.069101
2.560162
2.841622
2.887622
2.719604
2.378957
1.949495
1.545825
1.203837
0.8969974
0.6151468
0.3338164
0.002726233
-0.3799971
-0.7605221
-1.11433
-1.443529
-1.718288
-1.899681
-1.957722
-1.890815
-1.719871
-1.461022
-1.147591
-0.794145
-0.3871936
0.0394742
0.4232565
0.7423638
1.004259
1.202223
1.299619
1.284074
1.200924
1.083652
0.9365089
0.7509893
0.5158616
0.2585222
-0.002576149
-0.2693014
-0.50485
-0.681879
-0.7968535
-0.8265895
-0.7743759
-0.6810053
-0.5479476
-0.3708493
-0.199648
-0.08074839
-0.03550624
-0.07028396
-0.1644009
-0.2776273
-0.3745973
-0.450909
-0.4783269
-0.3891349
-0.172599
0.1157329
0.4030025
0.6334042
0.7849419
0.8403919
0.8070837
0.734508
0.6574042
0.5763822
0.4695907
0.309298
0.09462068
-0.148039
-0.3617639
-0.4976529
-0.5601506
-0.5483977
-0.4503741
-0.2839271
-0.09984193
0.03143562
0.07548814
0.03358989
-0.07006058
-0.1792951
-0.2388565
-0.2421555
-0.2367461
-0.2420259
-0.2385691
-0.1981562
-0.1023677
0.03787024
0.2205738
0.4010242
0.4935217
0.4915542
0.4598688
0.424404
0.3674126
0.2945136
0.2133709
0.1279364
0.04466458
-0.04284088
-0.1385843
-0.2140852
-0.2026377
-0.09317108
0.04599807
0.1512516
0.1752583
0.07341411
-0.1444142
-0.4054009
-0.636156
-0.758823
-0.7352273
-0.6023113
-0.3940497
-0.1563767
0.05770088
0.2331753
0.3699751
0.4833261
0.5843884
0.6678714
0.706589
0.6746626
0.5908679
0.4822621
0.3519844
0.1904427
0.03269671
-0.07583594
-0.1616626
-0.2536943
-0.3594981
-0.4934204
-0.6362947
-0.7473346
-0.8037283
-0.800326
-0.7366374
-0.5966089
-0.3947833
-0.207792
-0.07186987
0.04430136
0.1577427
0.2588443
0.3416992
0.4081111
0.4692386
0.5256149
0.5400265
0.4967129
0.4245322
0.339817
0.26265
0.2053394
0.160693
0.1287321
0.07194079
-0.02146224
-0.110187
-0.1828098
-0.2305253
-0.2619202
-0.3043976
-0.3468055
-0.3672302
-0.3471467
-0.2855486
-0.2209637
-0.1709825
-0.1335074
-0.1255439
-0.141573
-0.1532305
-0.1110584
0.02638025
0.2344951
0.4718932
0.6803563
0.7659169
0.703296
0.5613526
0.415501
0.3077073
0.2389753
0.1882655
0.148121
0.1020946
0.0312383
-0.05172693
-0.1534618
-0.2692209
-0.3463672
-0.3857346
-0.4052396
-0.3984181
-0.4082661
-0.4676066
-0.5364437
-0.5718566
-0.5657908
-0.5021992
-0.3688367
-0.194213
-0.01635166
0.1416925
0.2505564
0.2967761
0.322244
0.3375766
0.3102752
0.267576
0.2349133
0.1940562
0.1347226
0.05179629
-0.03051042
-0.0639192
-0.03797781
0.02692684
0.1227346
0.2434893
0.3625609
0.4251512
0.3826404
0.2431467
0.05930413
-0.1029874
-0.1980292
-0.240569
-0.2669993
-0.2723299
-0.2659882
-0.2703113
-0.2583365
-0.2259603
-0.1875114
-0.1053276
0.04526316
0.2194432
0.3525203
0.4216975
0.4481483
0.4630049
0.4639517
0.4112184
0.2931758
0.1318674
-0.06167429
-0.2585103
-0.4285026
-0.5645784
-0.6489918
-0.6902407
-0.7157106
-0.7164772
-0.6624847
-0.5444
-0.3720329
-0.1644365
0.04344489
0.2377852
0.401378
0.4982646
0.5387458
0.5544075
0.5530782
0.5364448
0.5132653
0.4917518
0.472228
0.4591586
0.4367739
0.3655398
0.2575212
0.1455363
0.007843421
-0.1651464
-0.3389455
-0.4970962
-0.6276705
-0.7073471
-0.7202322
-0.653233
-0.5267673
-0.3715228
-0.2054772
-0.03474015
0.123221
0.2273619
0.3235649
0.3779149
0.4159915
0.4732623
0.01080348
-1.135099
-2.233367
-2.867195
-3.185907
-2.768137
-0.7427689
2.246635
4.686014
5.944348
5.99178
5.275772
4.091391
2.362012
0.5128141
-1.044025
-2.449286
-3.63152
-4.217914
-4.162436
-3.722126
-3.182471
-2.731249
-2.375057
-1.96046
-1.329038
-0.497845
0.341711
1.014651
1.530959
1.973326
2.348497
2.61951
2.695093
2.470454
2.000297
1.460471
0.9295057
0.3998494
-0.09659979
-0.5349506
-0.8973051
-1.104402
-1.131994
-1.065607
-0.9779356
-0.8498151
-0.6013072
-0.2367957
0.1687717
0.5739269
0.8704318
0.9564101
0.8737289
0.6634969
0.3266138
-0.1188573
-0.6381664
-1.14709
-1.550597
-1.770842
-1.751216
-1.503778
-1.093156
-0.6114584
-0.1442014
0.2695612
0.6140705
0.8647384
0.9946665
1.030042
1.014757
0.9568726
0.8501415
0.6778683
0.4580065
0.2245496
-0.01558752
-0.2319357
-0.3851909
-0.4511114
-0.4028283
-0.2440515
-0.01173934
0.2521118
0.5071533
0.7134568
0.8196205
0.790529
0.6536668
0.4705461
0.2748996
0.08801721
-0.06910867
-0.2106868
-0.3398075
-0.4363982
-0.5115238
-0.562606
-0.5920431
-0.6275577
-0.6713203
-0.7431493
-0.8292228
-0.8636976
-0.8143478
-0.6774796
-0.4834888
-0.2743132
-0.06336294
0.1505974
0.353718
0.5081521
0.5910269
0.6304106
0.65035
0.6405686
0.6101277
0.5764182
0.5456697
0.4862126
0.3730355
0.2561197
0.1637008
0.08002923
-0.01218562
-0.1279945
-0.230198
-0.2849801
-0.3043105
-0.2737863
-0.2005407
-0.1241004
-0.04521672
0.02841043
0.06847347
0.07449041
0.06069444
0.01785055
-0.07002199
-0.1894306
-0.3172524
-0.4370651
-0.5144865
-0.5115075
-0.4313013
-0.3055086
-0.1661327
-0.04573736
0.04563262
0.1345765
0.2161743
0.2692024
0.3402901
0.4566785
0.5773675
0.6551163
0.6536648
0.5707697
0.4244235
0.2459899
0.08501248
-0.06622265
-0.2250153
-0.3420559
-0.4113049
-0.4581716
-0.4653617
-0.4183525
-0.3261744
-0.2045691
-0.06737828
0.03422065
0.07493298
0.09491196
0.1048465
0.09605759
0.07390004
0.05586504
0.0558615
0.06694171
0.07143756
0.06380443
0.05962327
0.05857651
0.0642058
0.07132447
0.02827843
-0.08949067
-0.2566077
-0.4168139
-0.5021808
-0.4985303
-0.426136
-0.2981424
-0.1353996
0.02997861
0.1644351
0.2660986
0.345489
0.3804993
0.354111
0.2775819
0.1712152
0.06359947
-0.02151746
-0.07439711
-0.08616177
-0.06069614
-0.0246975
0.0009308627
0.01106908
0.00290429
-0.00991006
-0.01086811
0.0008472828
0.04142063
0.1122199
0.1837079
0.2385192
0.2772779
0.3019097
0.3012385
0.2947818
0.3077935
0.3161071
0.2973344
0.2497576
0.185162
0.1125477
0.03508537
-0.03502826
-0.1135151
-0.2122673
-0.2981639
-0.3556978
-0.375093
-0.363129
-0.3735405
-0.4199269
-0.4812291
-0.5164191
-0.4919654
-0.430005
-0.3536453
-0.2909183
-0.2521468
-0.2215546
-0.2030051
-0.1902852
-0.1712073
-0.1383124
-0.08295935
0.001473421
0.1149291
0.2437628
0.3625924
0.4379133
0.4811975
0.5055716
0.4878345
0.4596307
0.4548903
0.4690698
0.4812735
0.4403905
0.3382761
0.2000047
0.04965519
-0.07591369
-0.1847757
-0.2891082
-0.3404433
-0.2896127
-0.1559997
-0.01145555
0.1054744
0.1850385
0.2134133
0.1785277
0.09287378
0.005743521
-0.05535624
-0.09663874
-0.132972
-0.1612533
-0.1951284
-0.2705536
-0.3710138
-0.4523978
-0.4774327
-0.4374521
-0.3264996
-0.1416403
0.05872288
0.2236921
0.3257487
0.3374571
0.2602028
0.1202217
-0.01654768
-0.09592869
-0.1165662
-0.09174559
-0.05361168
-0.01447723
0.04158651
0.1091973
0.1843801
0.2538132
0.2998699
0.3358191
0.3527229
0.3217149
0.2425397
0.1139703
-0.04739371
-0.1838949
-0.2721624
-0.3319996
-0.3782303
-0.4123374
-0.4161757
-0.3698977
-0.2918658
-0.2112654
-0.1379236
-0.1117502
-0.1567792
-0.2268804
-0.2622242
-0.2315676
-0.1478375
-0.01728752
0.1478099
0.2957621
0.4149375
0.5222876
0.6044686
0.637852
0.639381
0.6522101
0.6546555
0.5957617
0.4760561
0.3257721
0.1785807
0.03076593
-0.1254647
-0.2638915
-0.3775906
-0.4610222
-0.5042801
-0.514612
-0.4967465
-0.4531722
-0.4005767
-0.3624055
-0.3333907
-0.3092143
-0.2893534
-0.2571554
-0.2256151
-0.196991
-0.1681409
-0.1513186
-0.1157759
-0.03783598
0.07160956
0.1877607
0.2865417
0.3594538
0.3807876
0.367207
0.3758855
0.4012825
0.4242655
0.4251701
0.3724611
0.282841
0.1769543
0.07523394
0.01650908
0.002210179
0.01220221
0.03293347
0.06326114
0.0912566
0.07582777
0.004853609
-0.1097905
-0.2510497
-0.3951465
-0.52053
-0.6098223
-0.6593954
-0.652145
-0.5933687
-0.512082
-0.4178567
-0.3095021
-0.1687993
-0.007354567
0.1342997
0.239943
0.3109432
0.3756968
0.4603619
0.5351209
0.5718458
0.5870719
0.573763
0.5240902
0.4702724
0.3798143
0.2344491
0.1030714
0.004050313
-0.07826864
-0.1725869
-0.312396
-0.4547089
-0.5305603
-0.524425
-0.4412306
-0.3119628
-0.2139605
-0.1816387
-0.1813867
-0.1857464
-0.1820889
-0.1344839
-0.03058987
0.1102735
0.2988715
0.5302938
0.7462046
0.8731164
0.8546205
0.6846943
0.4083846
0.10733
-0.1488084
-0.3325944
-0.4268898
-0.4501949
-0.4291639
-0.3774053
-0.3412972
-0.3411528
-0.356949
-0.3795977
-0.3956959
-0.3942558
-0.3702072
-0.3171042
-0.2417193
-0.1495445
-0.05664664
0.01990125
0.08214487
0.1308543
0.1710158
0.2034575
0.2227556
0.2193884
0.2045293
0.2005336
0.1936577
0.195238
0.2208641
0.2418211
0.2391936
0.2206165
0.2111727
0.2313021
0.295076
0.3966504
0.490368
0.5137682
0.4360308
0.2828315
0.08037843
-0.1526001
-0.3660027
-0.5134952
-0.5796646
-0.5606506
-0.4711455
-0.34713
-0.237931
-0.1837718
-0.1710165
-0.1721321
-0.1788941
-0.1842076
-0.1950158
-0.2076674
-0.1944105
-0.1438333
-0.07227397
0.001702694
0.07963708
0.1675113
0.2381778
0.2703055
0.2919265
0.3308625
0.3917076
0.4545308
0.4808776
0.4636926
0.4113448
0.3120528
0.1703832
0.01812143
-0.1126074
-0.2159592
-0.3029603
-0.3776443
-0.450503
-0.5140823
-0.549782
-0.5483874
-0.4930123
-0.401387
-0.322574
-0.2696198
-0.2250494
-0.1852097
-0.1459969
-0.1001653
-0.03267173
0.07621165
0.2061378
0.332489
0.4312376
0.4981678
0.5538428
0.5657174
0.5159091
0.4410314
0.3638589
0.280584
0.202614
0.154362
0.124938
0.09271482
0.05831842
0.04788154
0.08438791
0.154415
0.2209588
0.2420207
0.1858511
0.05658175
-0.1146412
-0.3032832
-0.4779175
-0.6093079
-0.6947089
-0.7430737
-0.7585069
-0.7334769
-0.6556593
-0.5224674
-0.3600909
-0.2093326
-0.07912531
0.04639135
0.1668609
0.2598124
0.2981405
0.2839726
0.2549464
0.2502016
0.2808599
0.320021
0.337412
0.3460021
0.3687219
0.4034851
0.455555
0.5109844
0.5360051
0.517843
0.444522
0.3112458
0.131309
-0.07060288
-0.2762129
-0.4903826
-0.6978585
-0.8441356
-0.8961513
-0.8473042
-0.6901609
-0.4493282
-0.1627089
0.1447765
0.4293821
0.6230972
0.6694872
0.5802385
0.3968633
0.1484856
-0.09428093
-0.2707418
-0.367564
-0.3831521
-0.3365641
-0.2438882
-0.1006911
0.07785979
0.2436948
0.368129
0.4259517
0.3777262
0.2263229
0.0287545
-0.1461554
-0.2700205
-0.3393349
-0.3518398
-0.3093194
-0.2158537
-0.1043884
-0.01402012
0.04881369
0.07813491
0.06469645
0.02771792
0.004353182
0.01392344
0.04746274
0.1058091
0.1731772
0.2142708
0.2436322
0.2683404
0.2674232
0.2420942
0.1937723
0.1375313
0.1101957
0.1180097
0.1373571
0.1421537
0.1104607
0.04532947
-0.04684189
-0.1539233
-0.2459302
-0.3195646
-0.3906757
-0.4700946
-0.5458142
-0.5865108
-0.5817054
-0.5391704
-0.4644073
-0.3446365
-0.1755319
0.01605788
0.2061946
0.351365
0.4271149
0.4637844
0.4750066
0.480714
0.4936816
0.4952733
0.490436
0.4907864
0.4801196
0.417641
0.2972529
0.1493984
0.001683132
-0.1053711
-0.1774015
-0.2298897
-0.2272917
-0.1836187
-0.1315911
-0.08062648
-0.06660554
-0.1124403
-0.2053641
-0.3137814
-0.4248107
-0.5419789
-0.633281
-0.6582852
-0.5918863
-0.4489122
-0.2768534
-0.08292495
0.1085785
0.2294464
0.2525853
0.1950169
0.1010316
0.02157794
-0.02361813
-0.0429243
-0.0517571
-0.04774977
-0.006359435
0.08070284
0.1937104
0.315347
0.4308445
0.5397205
0.6513672
0.7548716
0.8308929
0.8431041
0.7552664
0.5697961
0.3176513
0.03077603
-0.265695
-0.5293939
-0.7312554
-0.8840958
-0.9881712
-1.017247
-0.9638866
-0.8440237
-0.6853948
-0.5029345
-0.2880825
-0.06951415
0.1334824
0.3342345
0.5253027
0.7131707
0.8945475
1.040176
1.141439
1.208145
1.208257
1.060369
0.7159229
0.330276
0.01972776
-0.4574705
-1.192436
-1.987502
-2.601527
-2.797136
-2.61303
-2.160051
-1.468299
-0.6389077
0.2720081
1.177758
1.958985
2.5864
3.042513
3.27594
3.232585
2.921635
2.417552
1.790187
1.069454
0.2419733
-0.6688396
-1.581516
-2.403081
-3.038983
-3.433455
-3.518572
-3.214431
-2.557086
-1.729931
-0.9605197
-0.3781599
0.01339018
0.2731751
0.427502
0.4488491
0.3531481
0.185704
-0.06241286
-0.3672387
-0.5923598
-0.5334091
-0.04023272
0.7942482
1.765554
2.701982
3.457862
3.971297
4.051811
3.51947
2.523544
1.397238
0.4736735
-0.1269802
-0.4772772
-0.6601164
-0.7577909
-0.7815272
-0.7195148
-0.6672612
-0.799408
-1.280418
-2.130386
-3.158712
-4.064297
-4.598834
-4.640036
-4.163647
-3.252881
-2.090865
-0.8934758
0.1690282
1.0182
1.637134
2.065335
2.369161
2.579885
2.723154
2.82524
2.873864
2.825146
2.662419
2.395948
2.007971
1.528009
1.054728
0.651995
0.3379714
0.1001965
-0.09344821
-0.278725
-0.494854
-0.7539292
-1.026801
-1.269711
-1.454299
-1.58638
-1.67299
-1.673272
-1.578259
-1.421451
-1.201643
-0.936277
-0.6541862
-0.37664
-0.1316128
0.08412392
0.2582596
0.3355698
0.2939852
0.1748239
0.03111048
-0.09489457
-0.1579969
-0.1345616
-0.02587582
0.1354848
0.2981708
0.4439591
0.562024
0.6412554
0.6752361
0.6746849
0.6563699
0.6075031
0.5403202
0.4597668
0.3544917
0.234711
0.1106163
0.01253902
-0.04862017
-0.06887934
-0.02856811
0.03724196
0.0740355
0.05695921
-0.02405605
-0.1616884
-0.3310606
-0.5029489
-0.6536173
-0.7738742
-0.8521661
-0.8493656
-0.7393323
-0.5322402
-0.24957
0.0562519
0.3087886
0.4710685
0.5419062
0.5236691
0.4478232
0.3715895
0.3141522
0.2593997
0.2296631
0.2561775
0.3166875
0.3852763
0.4619526
0.5455942
0.6017153
0.5772692
0.4663518
0.2797034
0.03264027
-0.2103372
-0.3997871
-0.5483221
-0.6854869
-0.8080406
-0.8918064
-0.9391663
-0.9562232
-0.9140534
-0.753096
-0.4740703
-0.1905909
0.02862903
0.1790688
0.2418333
0.2451637
0.2130215
0.1686683
0.1707541
0.2103624
0.2667593
0.3492969
0.4318605
0.5230798
0.6453788
0.7530077
0.7921059
0.7203125
0.539402
0.3274325
0.1265082
-0.07555015
-0.2508282
-0.3629715
-0.4337443
-0.4863552
-0.4855592
-0.4020463
-0.2795415
-0.2078259
-0.2312435
-0.3090578
-0.3951156
-0.4696461
-0.5213005
-0.5437037
-0.5219011
-0.4314555
-0.244078
0.005075276
0.2381482
0.4329561
0.5770096
0.6545648
0.6746615
0.6431843
0.5669263
0.4469357
0.2915011
0.1428511
0.04557659
0.02343118
0.08220786
0.1957908
0.3140382
0.4029557
0.4497454
0.437976
0.3529678
0.1977602
-0.001495888
-0.2114133
-0.4088721
-0.5675461
-0.6972891
-0.8235043
-0.9011542
-0.8838545
-0.8092816
-0.7397317
-0.6801532
-0.6079298
-0.5020046
-0.3422248
-0.1392533
0.08729225
0.2995795
0.4664561
0.6073273
0.7233412
0.8048936
0.846945
0.8423902
0.8070976
0.7197965
0.5670638
0.3945278
0.2158178
0.01344106
-0.1999113
-0.3823408
-0.4946474
-0.5170058
-0.4695749
-0.4026376
-0.3535634
-0.3202709
-0.2747889
-0.2267768
-0.1922531
-0.1617895
-0.1490245
-0.1643151
-0.1902386
-0.2001389
-0.1803556
-0.122766
-0.02345286
0.09382281
0.2100326
0.3018074
0.3444754
0.3461562
0.3247226
0.2948496
0.2678362
0.2777101
0.3539669
0.4680537
0.5537114
0.5715919
0.5364477
0.4459226
0.2977029
0.1196109
-0.07442225
-0.2536908
-0.3971973
-0.5162416
-0.5902615
-0.5987422
-0.5552362
-0.4684269
-0.3619619
-0.2641256
-0.1601755
-0.0504132
0.02695667
0.04529102
-0.007743083
-0.1109977
-0.2237217
-0.3227575
-0.3958795
-0.4387382
-0.4306569
-0.3647739
-0.2781388
-0.2016926
-0.1315556
-0.04206277
0.07235918
0.1883053
0.2906582
0.3977487
0.5258225
0.6593502
0.7784408
0.8611959
0.8810441
0.8299679
0.7330565
0.6101969
0.4594854
0.300773
0.1594434
0.0271529
-0.102064
-0.2346594
-0.3860523
-0.5181707
-0.5971456
-0.6297786
-0.6259401
-0.6084096
-0.5760522
-0.5327581
-0.5025356
-0.4782303
-0.4332717
-0.3460552
-0.2238197
-0.08725807
0.04181285
0.139844
0.2113613
0.287876
0.3815241
0.4513495
0.4747735
0.4720537
0.4521566
0.4254627
0.4001368
0.3322496
0.2083514
0.1292709
0.04295158
-0.06231849
-0.1342533
-0.6828507
-1.909325
-3.057928
-3.617076
-3.638974
-2.695052
-0.2524639
2.802703
5.066915
6.099178
6.103778
5.483237
4.329741
2.609834
0.8107218
-0.697176
-2.133861
-3.536782
-4.533143
-4.946816
-4.857209
-4.449858
-3.945553
-3.384945
-2.714496
-1.901385
-0.899286
0.2291239
1.314805
2.301977
3.191537
3.914825
4.451628
4.772499
4.787369
4.47864
3.882432
3.049747
2.058652
0.9977173
-0.05444007
-1.072385
-2.031177
-2.866307
-3.544413
-4.037809
-4.29272
-4.269095
-3.953732
-3.380387
-2.624297
-1.767376
-0.8850268
-0.05832704
0.629381
1.137904
1.474795
1.65668
1.696668
1.628176
1.507109
1.364869
1.213178
1.066165
0.9214104
0.7724805
0.626142
0.5082985
0.4482337
0.4524606
0.5073107
0.5848952
0.6548763
0.6717438
0.5922896
0.418863
0.1693619
-0.1282907
-0.4265701
-0.6909773
-0.8976462
-1.025488
-1.066389
-1.032089
-0.9575481
-0.8764783
-0.7890616
-0.6774803
-0.5326512
-0.3563641
-0.1714363
-0.011314
0.1043666
0.1827074
0.2446834
0.2973433
0.3424872
0.3834141
0.4133843
0.4368705
0.4800341
0.527146
0.5155076
0.4297796
0.3045116
0.1659196
0.04080411
-0.06847449
-0.1753863
-0.2532812
-0.3068743
-0.3523464
-0.3522652
-0.3136519
-0.269126
-0.2025574
-0.1082798
-0.006031674
0.07408512
0.1119866
0.1186119
0.08405521
0.01257163
-0.04711241
-0.07668018
-0.08849951
-0.08860631
-0.06637187
-0.03038399
-0.008211344
0.001701225
-0.00317822
-0.008677898
0.02867978
0.108913
0.2084199
0.3151451
0.4040313
0.4327928
0.3991209
0.331506
0.2253635
0.07621018
-0.1024526
-0.2852889
-0.4307984
-0.5136658
-0.5286047
-0.4831448
-0.3959057
-0.2678437
-0.1110566
0.03601662
0.1534422
0.2239185
0.2490011
0.241361
0.1906972
0.1153629
0.05669816
0.04524059
0.08538867
0.1693015
0.2787772
0.3577598
0.383579
0.3653489
0.2830525
0.1344602
-0.04202945
-0.2047872
-0.3334512
-0.421007
-0.465738
-0.4779383
-0.4735899
-0.4482391
-0.3864752
-0.298002
-0.1997624
-0.09732017
0.009756753
0.118729
0.2096356
0.2715204
0.3080761
0.3159772
0.2998584
0.2837858
0.2988387
0.3517525
0.417328
0.4709141
0.4961793
0.4819965
0.4201098
0.2947801
0.1083032
-0.1138583
-0.3365139
-0.5200043
-0.6435337
-0.6989976
-0.6973754
-0.6610774
-0.604564
-0.5470203
-0.4948501
-0.4400409
-0.3692155
-0.2715909
-0.1555969
-0.04808959
0.02464299
0.07159922
0.1208126
0.1628834
0.1735765
0.1525944
0.1093771
0.08315688
0.09590508
0.1284703
0.1928193
0.2894602
0.3917856
0.488483
0.5577253
0.5808887
0.5636785
0.514966
0.4574694
0.4202944
0.399903
0.3839621
0.3684756
0.33509
0.2627063
0.1528795
0.03567141
-0.07269022
-0.1773996
-0.2794639
-0.384
-0.4821547
-0.5671325
-0.6365557
-0.6729488
-0.6851898
-0.690215
-0.6777656
-0.647914
-0.6108719
-0.5509719
-0.4638903
-0.3483091
-0.1685836
0.0826874
0.3764892
0.6449721
0.8061713
0.8446662
0.7598199
0.5634534
0.3234092
0.1013634
-0.0646163
-0.1637896
-0.2080575
-0.183178
-0.08250435
0.05925766
0.2010793
0.3258978
0.4343608
0.5181162
0.5495588
0.5003168
0.3752372
0.1762704
-0.1066705
-0.431068
-0.7238022
-0.9269934
-1.000583
-0.948739
-0.8075411
-0.6068844
-0.3873182
-0.1823028
0.007548452
0.1751668
0.2962703
0.3536116
0.3305262
0.2235168
0.05818533
-0.1092354
-0.209667
-0.2366543
-0.2118956
-0.1262228
0.01569946
0.196977
0.4037179
0.6232555
0.8313173
0.9893177
1.064757
1.031088
0.8907267
0.6808652
0.427837
0.1632905
-0.06431208
-0.2565578
-0.4302587
-0.5665833
-0.6489213
-0.653456
-0.5686412
-0.4263769
-0.2664438
-0.1418101
-0.09544246
-0.1198496
-0.1989009
-0.3329344
-0.4893275
-0.5988245
-0.655901
-0.6423405
-0.6139874
-0.6548429
-0.4467345
0.1233636
0.6029135
0.7415468
0.5933152
0.3193399
0.1182962
0.07222821
0.1407629
0.2317757
0.3059621
0.3763796
0.4390174
0.4692966
0.4602146
0.4193297
0.3356918
0.204653
0.05330218
-0.0843942
-0.1685685
-0.1847466
-0.1728077
-0.1637172
-0.1689288
-0.1958165
-0.2396582
-0.2931662
-0.3356752
-0.3459718
-0.3148778
-0.234896
-0.1125375
0.02530555
0.1501863
0.2428771
0.2894285
0.2991516
0.2922841
0.2656515
0.221096
0.1688019
0.09767007
0.006924384
-0.0774459
-0.1341687
-0.14571
-0.1158953
-0.08677324
-0.08200633
-0.1012763
-0.1206461
-0.08654375
-0.009689174
0.04558715
0.06060613
0.03274506
-0.06577557
-0.231026
-0.399349
-0.5160665
-0.5697154
-0.5437354
-0.4288757
-0.2578791
-0.07026029
0.100298
0.2407331
0.3632076
0.4585471
0.4964179
0.4744755
0.431659
0.3949697
0.3691221
0.3710663
0.4051735
0.4546877
0.4826184
0.450275
0.3619559
0.230819
0.06894574
-0.100801
-0.2554926
-0.3772978
-0.4608462
-0.4971793
-0.490084
-0.4627368
-0.4346801
-0.4145944
-0.3949941
-0.3679983
-0.3431579
-0.3211401
-0.277759
-0.1883073
-0.05641648
0.07669461
0.1716677
0.2255183
0.2520792
0.2457064
0.2121329
0.1897265
0.1917751
0.196814
0.1852664
0.1590622
0.1264835
0.08857405
0.0531299
0.02373918
0.004710413
0.01056603
0.01937192
0.0162262
0.02614724
0.03510357
0.04306186
0.07465921
0.1032196
0.09934349
0.05861257
-0.01722582
-0.1095855
-0.1836848
-0.222601
-0.2331717
-0.2180423
-0.1667993
-0.08613827
0.01235066
0.1418479
0.2828379
0.4092798
0.5221217
0.5816334
0.5400578
0.3959995
0.1725491
-0.08122943
-0.3130604
-0.4985485
-0.6113747
-0.6546264
-0.6644743
-0.6305414
-0.52138
-0.3504905
-0.1732932
-0.02467222
0.1012969
0.2015798
0.267412
0.2854733
0.2408333
0.1531235
0.06443729
0.005224882
-0.01391417
0.007459727
0.04538042
0.07094845
0.07075901
0.02457875
-0.05120426
-0.09888995
-0.06083305
0.09424583
0.3135344
0.4881894
0.5394695
0.4717658
0.3439662
0.1763243
-0.0218009
-0.2058878
-0.3358153
-0.4017061
-0.4004896
-0.3175348
-0.1977054
-0.1134114
-0.07705925
-0.07342516
-0.08028121
-0.09165403
-0.1021134
-0.08695606
-0.06248197
-0.03060658
0.0421553
0.1175264
0.1719656
0.2616724
0.3925227
0.5194767
0.6086659
0.6174049
0.5200402
0.330844
0.07902118
-0.1899201
-0.4283514
-0.6147376
-0.739112
-0.7699539
-0.6988942
-0.5635173
-0.3858129
-0.1990871
-0.04747954
0.05137298
0.09500101
0.1049325
0.07954682
0.01806184
-0.0429026
-0.08255238
-0.06637029
0.0165077
0.1269169
0.2418745
0.3409434
0.4098146
0.4217088
0.3607917
0.2784447
0.1900925
0.08019203
-0.01071524
-0.06702783
-0.116204
-0.1460969
-0.1316639
-0.09035636
-0.03947845
0.0279713
0.09978339
0.1484825
0.1804105
0.2206273
0.2493954
0.2490931
0.2487684
0.2315733
0.1704725
0.09810791
0.01416865
-0.08807178
-0.1651244
-0.2128069
-0.259149
-0.3078754
-0.3646547
-0.4246876
-0.4729731
-0.5093685
-0.539022
-0.5606872
-0.549264
-0.4839619
-0.3684035
-0.2265063
-0.09536628
0.002036223
0.0626701
0.1211247
0.2195807
0.3778059
0.58509
0.7671238
0.8416402
0.7872515
0.6548414
0.4934202
0.3157679
0.1777329
0.1119184
0.09723528
0.1090849
0.07980178
-0.02275193
-0.151729
-0.2433618
-0.2572941
-0.2058442
-0.1268611
-0.0713962
-0.07744737
-0.1480414
-0.2549286
-0.3731477
-0.4990759
-0.5825937
-0.5630708
-0.4328852
-0.2251918
0.004336916
0.2111702
0.3776331
0.4966284
0.5440432
0.5007526
0.3936535
0.2637942
0.1341659
0.01509564
-0.09649913
-0.1826348
-0.2248092
-0.2336571
-0.221165
-0.2205961
-0.2459049
-0.2699631
-0.2809803
-0.2799
-0.242208
-0.1342778
0.006664309
0.1212136
0.2073234
0.2608727
0.2800228
0.2911144
0.2917463
0.2781941
0.2821306
0.3045624
0.3169093
0.2969419
0.2150951
0.07060362
-0.09068132
-0.2236872
-0.3092661
-0.3425011
-0.3273031
-0.2880276
-0.2405497
-0.1889559
-0.1557165
-0.1543536
-0.1772207
-0.2040669
-0.2120292
-0.1987732
-0.1670915
-0.1139995
-0.05013805
0.004108189
0.04715076
0.1117773
0.2275775
0.3879066
0.5456718
0.6420709
0.6733035
0.6471865
0.556145
0.4446623
0.351895
0.2597124
0.160014
0.06087282
-0.03299408
-0.1096523
-0.183826
-0.269803
-0.3502283
-0.4096669
-0.4357975
-0.4423743
-0.4539526
-0.4632542
-0.4761829
-0.5134904
-0.55722
-0.5748168
-0.5444856
-0.4801277
-0.4031444
-0.2489554
0.01035204
0.2811035
0.4916312
0.6016688
0.5924152
0.5162483
0.4281695
0.3704526
0.3616205
0.3542239
0.3234427
0.2850212
0.2285246
0.1387442
0.03166946
-0.05418099
-0.09889411
-0.1242303
-0.1419427
-0.1173104
-0.06242689
-0.05460231
-0.1116493
-0.2095748
-0.3303183
-0.4425067
-0.5335653
-0.5822833
-0.5507967
-0.4400454
-0.2854757
-0.1181789
0.0448436
0.1709882
0.2365732
0.2809455
0.3474074
0.4134359
0.454197
0.4887941
0.5247759
0.5678602
0.6245193
0.6654633
0.683319
0.6683128
0.6228526
0.5943877
0.5292009
0.309599
-0.1360362
-0.7829928
-1.429477
-1.876075
-2.082921
-2.016344
-1.63704
-1.026782
-0.3099779
0.3732683
0.8948683
1.286873
1.623938
1.905492
2.10023
2.134904
1.966452
1.644028
1.235264
0.7420403
0.1529936
-0.4846844
-1.140962
-1.792375
-2.360852
-2.752121
-2.887298
-2.735214
-2.324287
-1.79855
-1.282414
-0.7729919
-0.3633182
-0.1358918
-0.06642224
-0.1021616
-0.06886107
0.06808177
0.1489516
0.2638627
0.5006585
0.7536928
1.222191
2.197818
3.575229
4.756446
5.009436
4.158859
2.646349
1.147529
0.08762614
-0.5301756
-0.787273
-0.8057569
-0.7155077
-0.5273368
-0.3183962
-0.220961
-0.3379214
-0.7719511
-1.497459
-2.349695
-3.144046
-3.696097
-3.869519
-3.65336
-3.087526
-2.283844
-1.492978
-0.8895797
-0.500739
-0.2922063
-0.1416965
0.08213181
0.4605926
0.9866249
1.576113
2.172273
2.654721
2.887425
2.878083
2.707624
2.448583
2.150442
1.877243
1.663288
1.498548
1.356444
1.131648
0.7724265
0.3214694
-0.2219875
-0.8089268
-1.30057
-1.618131
-1.783034
-1.853066
-1.861838
-1.798568
-1.63561
-1.388891
-1.140453
-0.9050598
-0.6227371
-0.3082953
0.01440074
0.2983583
0.4316164
0.4426688
0.4312024
0.3876186
0.3156508
0.2293721
0.1290781
0.08746205
0.120358
0.1614672
0.1510056
0.07191791
-0.02461234
-0.1015492
-0.1184436
-0.05833616
0.001106679
-0.003732917
-0.07551965
-0.1710688
-0.2356954
-0.2531777
-0.2079428
-0.1043704
0.01315769
0.1041979
0.1379095
0.1383092
0.1542896
0.179481
0.1914954
0.1880733
0.1983013
0.2495804
0.3003418
0.3046934
0.2833422
0.2784708
0.3032311
0.3485216
0.3834861
0.3402182
0.2295057
0.1257976
0.03147141
-0.04237322
-0.07662966
-0.09333352
-0.08718921
-0.07069295
-0.1099752
-0.2264784
-0.3613556
-0.46057
-0.5143169
-0.5278282
-0.512958
-0.4774033
-0.4304502
-0.3726346
-0.2780421
-0.171195
-0.05626778
0.1307158
0.3108906
0.3790931
0.3780624
0.3241046
0.2309417
0.153771
0.1241281
0.1842465
0.3275673
0.519289
0.667971
0.6178073
0.4100216
0.177881
-0.04649104
-0.2026854
-0.263272
-0.2968449
-0.3472256
-0.3928211
-0.3676634
-0.2657658
-0.1716513
-0.1132704
-0.07647093
-0.06242821
-0.08794769
-0.1755106
-0.2688785
-0.3580612
-0.4690392
-0.490395
-0.3701798
-0.179637
0.02877715
0.181637
0.2556134
0.328225
0.438767
0.5478762
0.5924827
0.5498064
0.435939
0.2350988
-0.0709223
-0.4102315
-0.6446003
-0.6865746
-0.5448532
-0.284853
0.03003407
0.3336817
0.5335975
0.5957766
0.5727227
0.5215744
0.452936
0.3555776
0.2452332
0.1323804
0.03104809
-0.01996726
-0.02850784
-0.04691437
-0.1374017
-0.3051362
-0.4627118
-0.5498728
-0.5598343
-0.5248905
-0.4764962
-0.3838655
-0.2563342
-0.1151832
0.04603361
0.2028137
0.3324695
0.3938627
0.3769744
0.3123548
0.1932238
0.03596121
-0.1297077
-0.2838733
-0.3463201
-0.2707658
-0.1438206
-0.04710142
0.02179142
0.07557829
0.1232435
0.1557537
0.1353777
0.06591028
-0.01231735
-0.08931812
-0.1465625
-0.163442
-0.1680343
-0.1476971
-0.07943878
-0.006344829
0.07255803
0.1891073
0.3213264
0.4266332
0.4797204
0.4799737
0.4216376
0.3129101
0.1941935
0.09036359
-0.001757925
-0.09191634
-0.1485459
-0.1568337
-0.1720403
-0.2160891
-0.2811817
-0.3460247
-0.3379443
-0.2411187
-0.1240248
-0.01378464
0.1123375
0.2504979
0.3623384
0.4115664
0.3810791
0.2776495
0.1342608
-0.01612216
-0.162386
-0.301467
-0.4203571
-0.5155013
-0.5865343
-0.60953
-0.5615984
-0.4458373
-0.3038512
-0.1837822
-0.1061153
-0.0300806
0.08277017
0.1785043
0.2566282
0.3505767
0.4369625
0.5184818
0.554341
0.4964584
0.3844318
0.2433547
0.0733396
-0.08418772
-0.1963279
-0.2532677
-0.2388494
-0.1880787
-0.1427453
-0.1112354
-0.1180676
-0.1428215
-0.1344349
-0.1000121
-0.06548388
-0.0190378
0.04886696
0.1102231
0.1506506
0.1784937
0.1955699
