-0.3021018
-0.4866251
-0.7023841
-0.9791629
-1.100407
-0.9530347
-0.70522
-0.4611038
-0.2213451
0.1207761
0.6430011
1.207913
1.580488
1.62232
1.345606
0.8989377
0.5293048
0.2580792
0.06372298
0.09026077
0.1879927
0.1610981
0.08219937
-0.03202047
-0.2633995
-0.5280167
-0.7032964
-0.8311262
-0.9287164
-0.9754426
-0.9532904
-0.8676118
-0.6961753
-0.4791171
-0.4201622
-0.4198926
-0.2347046
0.02274256
0.2780564
0.69537
1.159428
1.363027
1.371916
1.323056
1.124278
0.764757
0.3147811
-0.1236034
-0.4189997
-0.5509744
-0.5451527
-0.4445944
-0.3170055
-0.267563
-0.3649274
-0.3888859
-0.2073692
-0.06849234
-0.06811073
-0.09175552
-0.1245087
-0.1419752
-0.1141322
-0.1254237
-0.2784416
-0.5219849
-0.7452657
-0.974129
-1.028476
-0.7169312
-0.2736329
0.1584827
0.4736201
0.5350271
0.499475
0.5350363
0.6920446
0.835296
0.8661153
0.8793346
0.8552393
0.8106593
0.7979869
0.7046447
0.4352572
0.06067588
-0.2753227
-0.5059428
-0.6584773
-0.7270529
-0.7544187
-0.7893637
-0.6722402
-0.4275893
-0.2263203
0.0006506584
0.2570329
0.3554402
0.2683668
0.2097742
0.2025663
0.1182621
0.1394131
0.2988859
0.1929072
-0.155459
-0.3194973
-0.1872238
0.02569208
-0.0003203191
-0.3516182
-0.768362
-0.9856879
-0.9393951
-0.5787385
0.007154994
0.5630233
0.8363083
0.6608785
0.3266034
0.1021468
-0.04231719
-0.04610464
0.06895497
0.184595
0.2585931
0.3455792
0.4005455
0.3328653
0.2373646
0.1793861
0.1240395
0.04842834
-0.0702446
-0.2400017
-0.4152541
-0.5873563
-0.735698
-0.7595469
-0.6495491
-0.4628254
-0.318152
-0.2402303
-0.1786052
-0.2344723
-0.2916048
-0.1913906
-0.06844215
0.02358411
0.3210062
0.9829037
1.663455
2.135794
2.424159
2.266931
1.690063
1.131526
0.8364142
0.6865708
0.4581445
0.04082492
-0.6020449
-1.355205
-2.137739
-2.99858
-3.764133
-4.074313
-3.729308
-2.825419
-1.606751
-0.2884101
0.915287
1.834885
2.301192
2.04224
1.100027
-0.0280221
-0.9419487
-1.431525
-1.290284
-0.5258759
0.6672934
2.030431
3.202756
3.882484
4.02206
3.808828
3.357818
2.694064
1.91676
1.057818
0.1541104
-0.6480726
-1.283013
-1.821424
-2.3898
-3.042665
-3.696302
-4.258181
-4.545077
-4.417355
-3.978802
-3.239955
-2.286142
-1.351994
-0.4151353
0.5810769
1.527904
2.325184
3.014859
3.543005
3.691645
3.456878
2.968874
2.35162
1.66156
0.9432271
0.331312
-0.1017162
-0.3183835
-0.4420375
-0.5646747
-0.5731627
-0.6256924
-0.8066412
-0.8727403
-0.7884107
-0.6425171
-0.5877313
-0.6497191
-0.6534008
-0.6792582
-0.642368
-0.2993808
0.2027884
0.6703724
0.9810538
1.032585
0.8712034
0.5839374
0.2822258
0.02386791
-0.1166236
-0.138506
-0.276693
-0.4847417
-0.5458084
-0.5125098
-0.4400849
-0.3013009
-0.1768164
-0.1722261
-0.1377906
0.004071726
0.01659567
-0.1159958
-0.1922991
-0.1503699
-0.06733051
0.03367433
0.1759303
0.2381313
0.2227873
0.2623506
0.2922786
0.2257496
0.1562235
0.1207112
0.02886017
-0.08733486
-0.2270876
-0.4070013
-0.4374268
-0.2782631
-0.1277102
-0.04865451
0.004517723
0.07794908
0.08620395
-0.06109016
-0.08106463
0.06776704
0.157508
0.2365475
0.1809199
-0.06315835
-0.212179
-0.2616231
-0.363837
-0.367912
-0.1469314
0.138569
0.424353
0.7028039
0.8063323
0.722001
0.6400404
0.5675712
0.3782315
0.2193705
0.1703974
0.06143972
-0.09936592
-0.2639376
-0.4369677
-0.567072
-0.6150883
-0.6563255
-0.7897643
-0.877808
-0.7957174
-0.6869945
-0.6147395
-0.4555246
-0.2247575
0.01339009
0.34727
0.8116551
1.187041
1.27243
1.141992
0.8704
0.5804933
0.3845826
0.08955593
-0.2939266
-0.4975865
-0.5311172
-0.4678802
-0.3199727
-0.1933775
-0.2187642
-0.3671647
-0.3744412
-0.2456775
-0.1518005
-0.005387509
0.2086572
0.4248229
0.5691115
0.5511521
0.3693528
0.1358464
0.0132043
-0.08214636
-0.2433188
-0.3333797
-0.2780793
-0.03173919
0.402748
0.7103861
0.6509795
0.4891363
0.358139
0.1774563
0.07037902
-0.08736989
-0.3896529
-0.6539357
-0.9153838
-1.198446
-1.421757
-1.524361
-1.375578
-0.9724643
-0.4364842
0.2058279
0.8147796
1.153691
1.21514
1.099649
0.8868132
0.6345971
0.4218418
0.2319462
0.01419631
-0.04126003
0.0238758
-0.01588915
-0.03592848
0.0009051523
-0.1079802
-0.3009331
-0.4108446
-0.4786252
-0.3756285
-0.0234233
0.2366161
0.2560167
0.2057887
0.1943696
0.1314068
0.03671783
0.0494098
0.02371671
0.0179049
0.1630889
0.2973817
0.354315
0.3047305
0.1876206
-0.01406977
-0.2776886
-0.3572938
-0.2143536
-0.004776825
0.1168952
0.09078141
-0.01390059
-0.09750007
-0.1821851
-0.323428
-0.3737725
-0.2800294
-0.1835866
-0.1283569
-0.07932663
-0.06934718
-0.09133462
-0.05591846
-0.01715798
-0.1036174
-0.1621415
-0.02645244
0.1112062
0.286568
0.5640556
0.6378462
0.4945068
0.2935674
0.1289377
0.02023164
-0.08969741
-0.1824741
-0.3299561
-0.4207803
-0.351698
-0.3250268
-0.3060501
-0.1337626
0.1270674
0.3275524
0.4352293
0.5061823
0.526682
0.49051
0.4209403
0.2936728
0.1256322
0.02054208
-0.04494761
-0.1934239
-0.3830048
-0.5759897
-0.7493905
-0.8414637
-0.9086983
-0.9268122
-0.831019
-0.5832597
-0.1879909
0.1387508
0.3071457
0.3968408
0.469882
0.6338978
0.8070131
0.8099477
0.6874064
0.5619467
0.3619157
0.04079421
-0.1778102
-0.2236346
-0.227176
-0.1341511
0.1293978
0.3565698
0.5115576
0.6444755
0.6910419
1.155332
1.143692
-1.046177
-3.181725
-2.49689
-0.8389787
-0.2671829
-0.1319346
0.01162245
-0.1158897
-0.3660233
-0.3881606
0.01305734
0.7732983
1.429915
1.507945
1.153895
0.7988355
0.5196815
0.1468372
-0.264474
-0.4999155
-0.5809956
-0.6213586
-0.6133661
-0.5362477
-0.4261156
-0.297006
-0.1410645
0.0635188
0.3475336
0.6771206
0.9751008
1.039737
0.7532557
0.3615037
0.1152227
0.02732365
-0.01293713
-0.1276135
-0.3589327
-0.6664265
-0.9358675
-1.160506
-1.434112
-1.659144
-1.765085
-1.794984
-1.55893
-0.9177927
-0.03196276
0.98468
1.923682
2.397026
2.416985
2.191517
1.681813
1.075683
0.6816628
0.4477891
0.2788808
0.2334943
0.3126822
0.3280822
0.1148023
-0.1796005
-0.4280587
-0.6348869
-0.7217449
-0.8386518
-1.025739
-0.9752192
-0.7575286
-0.6185961
-0.4982042
-0.2727132
-0.02811244
0.01731991
-0.1486111
-0.4378667
-0.7336449
-0.8561038
-0.7282447
-0.4506048
-0.2491459
-0.03239661
0.3889073
0.8516723
1.243237
1.479189
1.396158
1.040843
0.5746526
0.1404184
-0.153256
-0.2079441
-0.01688349
0.1592786
0.1768685
0.1516449
0.1154125
0.07807986
-0.04054776
-0.3171437
-0.4875461
-0.4507595
-0.4615799
-0.5339448
-0.491742
-0.3222269
-0.1189125
0.09297386
0.3047669
0.4557085
0.5092771
0.420739
0.1473606
-0.2100208
-0.4615412
-0.6569657
-0.9015533
-1.009948
-0.93455
-0.8759522
-0.7840536
-0.5194885
-0.2058866
0.08933326
0.4187051
0.7449282
1.035224
1.227228
1.313413
1.30463
1.128621
0.9231086
0.6593056
0.1720774
-0.2830424
-0.5888469
-0.7684808
-0.6987418
-0.4801174
-0.353484
-0.4209917
-0.5202224
-0.5233446
-0.4195725
-0.1294056
0.2248482
0.4712724
0.6462043
0.7591941
0.7218444
0.5595889
0.4232534
0.3615876
0.2914539
0.1837129
0.05638913
-0.1014324
-0.176161
-0.1818819
-0.2981702
-0.4782882
-0.5654154
-0.6025348
-0.833132
-1.162779
-1.365309
-1.535361
-1.508088
-1.014997
-0.2870178
0.3887316
0.9957434
1.402314
1.50842
1.493096
1.354382
1.018075
0.7164993
0.5628654
0.4223507
0.2333504
0.09088945
0.007937901
-0.152316
-0.2950226
-0.3816998
-0.563614
-0.6619777
-0.5219465
-0.3295096
-0.1007832
0.1875699
0.2731876
0.151107
0.05834149
0.003603822
-0.09347261
-0.2511866
-0.4695751
-0.7174271
-0.8530425
-0.8380374
-0.7725149
-0.6041481
-0.2965746
-0.02858197
0.07147913
0.1465296
0.232794
0.1446875
0.02928815
0.180114
0.480047
0.7506412
1.031069
1.240069
1.166534
0.816962
0.4459226
0.2159879
0.151384
0.2659792
0.3639131
0.2794643
-0.04758017
-0.640313
-0.8191455
-0.1620448
0.5591697
0.5872275
-0.1010465
-0.88412
-1.25017
-1.269146
-1.063574
-0.7587507
-0.5035166
-0.2830951
-0.09677266
0.03704538
0.1668488
0.2971038
0.3687352
0.2990536
0.223737
0.2612202
0.2215729
0.1108462
0.06339627
0.03457098
-0.01155873
-0.02261595
-0.02731457
-0.1005602
-0.1040066
0.007055636
0.09973615
0.1621113
0.2200078
0.3013529
0.3747966
0.4246993
0.474977
0.4582108
0.5074222
0.6060283
0.4242618
0.06583624
-0.2815447
-0.6405292
-0.916989
-1.071533
-1.131347
-1.066824
-0.8144069
-0.4285219
-0.04759259
0.2823251
0.5143248
0.5254326
0.3779493
0.2768811
0.1827799
0.06924943
0.06814327
0.1087803
0.07288945
0.03625987
-0.03967794
-0.2458512
-0.3176183
-0.003010796
0.5434105
1.047645
1.326102
1.308672
1.045016
0.6689043
0.3481106
0.09211323
-0.1718496
-0.3914461
-0.5781204
-0.8297056
-1.068797
-1.141195
-1.116148
-1.05472
-0.8520299
-0.6189272
-0.5272732
-0.4811049
-0.3709019
-0.2026521
0.01065937
0.2569415
0.4220205
0.4527593
0.4706636
0.4219076
0.35319
0.4642837
0.5538566
0.5141076
0.5412301
0.5795875
0.5259606
0.4369327
0.3134902
0.1844676
0.1315104
0.1051091
-0.02205564
-0.2439212
-0.4112323
-0.4652469
-0.4321245
-0.266066
0.01450929
0.2133406
0.2087623
0.1417726
0.05713183
-0.1368079
-0.3009446
-0.3458839
-0.4460149
-0.6052049
-0.6487457
-0.6953759
-0.8610659
-0.8570666
-0.505814
0.02163185
0.5121799
0.7921574
0.7816384
0.6129627
0.4116106
0.1916592
0.06553065
0.2108245
0.645299
1.10753
1.319775
1.143375
0.6945782
0.1925944
-0.4234882
-0.9877387
-1.172166
-1.040211
-0.8299643
-0.6464456
-0.327475
0.1634517
0.5699496
0.7040197
0.5409718
0.2269344
0.05741939
0.07662571
-0.1631952
-0.7749167
-1.320337
-1.515342
-1.241718
-0.5718699
0.2713648
0.9334115
1.065427
0.8191434
0.4247199
-0.03319031
-0.4252754
-0.6908457
-0.7621717
-0.6111079
-0.1569036
0.6080216
1.4041
1.943793
2.031054
1.689304
1.147565
0.41763
-0.3905352
-0.8314068
-0.9546808
-1.115244
-1.240788
-1.235792
-1.14738
-0.9305544
-0.583194
-0.2034629
0.1064213
0.2446675
0.1549859
-0.04829746
-0.05336617
0.2277731
0.4623747
0.4451022
0.3043014
0.2373223
0.368259
0.6973498
1.000867
0.9344124
0.4972241
0.0101632
-0.4121145
-0.768756
-0.9678529
-1.011919
-0.9309921
-0.7155319
-0.4378257
-0.2529485
-0.08453626
0.2436769
0.5581257
0.7631465
0.9814444
1.10233
0.9492446
0.6661921
0.447828
0.1715168
-0.1191919
-0.2359208
-0.3278655
-0.5143047
-0.6693031
-0.6995818
-0.6639402
-0.5369874
-0.3326906
-0.2629429
-0.3339784
-0.4361861
-0.5352426
-0.5511942
-0.3970154
-0.09122045
0.2162283
0.4607798
0.653914
0.678772
0.5195918
0.3245458
0.1277795
-0.01416416
-0.00516935
0.09957635
0.1840233
0.2252433
0.2548542
0.218931
0.1940342
0.2788254
0.3608998
0.4184601
0.4744189
0.4205886
0.2889902
0.2569418
0.2608485
0.153273
-0.01174677
-0.1412345
-0.2152066
-0.2660805
-0.3335015
-0.3874768
-0.4209458
-0.5322937
-0.6380364
-0.7124104
-0.7839258
-0.7194989
-0.7041663
-0.7888296
-0.7750634
-0.6525425
-0.4874788
-0.3146698
-0.03911309
0.1965453
0.257335
0.2974408
0.3215633
0.368613
0.5809715
0.8650938
0.9806957
0.9067165
0.8696334
0.8860038
0.7476455
0.5668293
0.5224584
0.567543
0.6989841
0.6834018
0.382298
0.1239505
-0.07011987
-0.4133669
-0.7697272
-0.9562625
-1.07132
-1.169651
-1.055709
-0.8311192
-0.7570357
-0.7058867
-0.5759004
-0.4793642
-0.4393089
-0.3521802
-0.2143155
-0.07728578
0.1825899
0.5396149
0.8103949
0.9605477
0.9296793
0.7091699
0.4964542
0.493555
0.6356021
0.7290379
0.8058897
0.8425479
0.7858055
0.792109
0.8361877
0.7173886
0.323676
-0.2004246
-0.635778
-1.033253
-1.348956
-1.489657
-1.519456
-1.405461
-1.182819
-0.9892473
-0.875026
-0.7616564
-0.6472736
-0.5705037
-0.4039024
-0.2324329
-0.1287347
0.03720716
0.2727799
0.4940045
0.5597271
0.6242171
0.7897446
0.846981
0.8651418
0.9357603
0.9646557
0.8241985
0.4700275
0.01626189
-0.3338249
-0.3451969
-0.1206623
0.1625326
0.5484669
0.7932349
0.604591
0.211702
0.05282656
0.1017321
0.1125282
0.1524541
0.1305579
-0.1236715
-0.3450254
-0.4259309
-0.5944026
-0.8284699
-1.054181
-1.264475
-1.299807
-1.130558
-0.8200086
-0.3305736
0.190654
0.5651095
1.035904
1.716949
2.293904
2.612183
2.673147
2.47952
1.942789
1.0507
0.1093352
-0.786007
-1.717148
-2.549156
-3.213593
-3.73339
-3.935455
-3.645782
-2.954255
-1.97193
-0.7405955
0.5196604
1.495173
2.039905
2.127837
1.662428
0.5829312
-0.8041501
-1.963177
-2.50785
-2.14367
-0.782876
1.239338
3.38873
5.093601
5.949584
6.018507
5.597084
4.766929
3.554945
2.10966
0.4994607
-1.064975
-2.272671
-3.119178
-3.679075
-4.012658
-4.21699
-4.325392
-4.410846
-4.314239
-3.877038
-3.251122
-2.396024
-1.393069
-0.5917041
0.03466602
0.7143559
1.347707
1.811225
2.203525
2.511933
2.764793
2.984044
3.025313
2.750236
2.106516
1.37999
0.8299098
0.3745898
-0.0628252
-0.568955
-1.1263
-1.524233
-1.681893
-1.638019
-1.374386
-0.8889087
-0.2894446
0.3025092
0.8059506
1.115998
1.22862
1.26221
1.220239
1.018197
0.7174259
0.3927124
0.06798789
-0.1450174
-0.2810081
-0.4233683
-0.5583882
-0.6897191
-0.8848191
-1.234558
-1.449673
-1.322129
-1.186136
-1.188361
-1.109973
-0.8815095
-0.619385
-0.3009403
0.0892794
0.4313939
0.6911183
0.9071324
1.018677
0.9136193
0.7392405
0.6518583
0.5656189
0.5482683
0.6451944
0.6738244
0.5887114
0.413524
0.108106
-0.2187176
-0.2952791
-0.07119837
0.1970473
0.4320731
0.5903696
0.4386878
0.006066931
-0.5422121
-1.07992
-1.373247
-1.377876
-1.194013
-0.8305495
-0.3875714
-0.02468261
0.1879598
0.2414866
0.2289675
0.2140827
0.132815
0.06795506
0.09800396
0.0328072
-0.1140424
-0.09001191
0.06394199
0.2176033
0.3595231
0.3995161
0.3233078
0.2792676
0.3888831
0.6160368
0.7708799
0.6718724
0.3637447
0.06999131
-0.09207818
-0.218008
-0.419551
-0.5397112
-0.4353952
-0.2444403
-0.01949123
0.2049927
0.2366712
0.07270507
-0.03731538
-0.04422034
-0.1423427
-0.2706155
-0.2885681
-0.3092115
-0.3445097
-0.3350411
-0.3513818
-0.3377395
-0.2462073
-0.1497337
0.0390512
0.3431803
0.584735
0.6490031
0.5202384
0.3018457
0.02767797
-0.2368139
-0.240337
-0.1463057
-0.1224644
0.02447148
0.1499027
0.09739763
-0.0001607711
-0.1340317
-0.3270416
-0.4153641
-0.3158613
-0.1298701
0.04359858
0.203318
0.3899062
0.4406455
0.2886535
0.07236974
-0.1675038
-0.3427692
-0.4268526
-0.4423346
-0.2808987
0.02918794
0.2930056
0.4643917
0.63894
0.8323876
0.934886
0.8803829
0.7671059
0.6096921
0.4346259
0.3628491
0.2591946
-0.05040138
-0.4647791
-0.7678959
-0.962199
-1.103026
-1.197889
-1.483534
-1.852495
-1.854469
-1.402553
-0.7330536
-0.1170056
0.332394
0.5459934
0.5816928
0.6807347
0.8690343
0.9501309
0.9100986
0.895526
0.852215
0.7933599
0.864697
0.974414
0.9821374
0.82447
0.4788696
-0.005061511
-0.5004272
-0.9147967
-1.279939
-1.468075
-1.330967
-0.9293413
-0.3198104
0.3118702
0.7249259
0.902859
0.8582537
0.5555351
0.1060093
-0.2159173
-0.2794758
-0.2687495
-0.3529353
-0.4362929
-0.4086959
-0.3375078
-0.2938839
-0.2790705
-0.2758642
-0.244532
-0.0955141
0.1428671
0.2607876
0.246379
0.211149
0.189215
0.204635
0.1688036
0.09397657
0.1100696
0.1953264
0.2704453
0.3373118
0.4634031
0.5501115
0.4577351
0.2985187
0.196645
0.182758
0.251481
0.3050674
0.1899293
-0.1222887
-0.4031803
-0.5292085
-0.5799549
-0.4554861
-0.2259455
-0.1303223
-0.07999895
-0.05974336
-0.2084029
-0.4041537
-0.3988734
-0.2771419
-0.2444683
-0.1668914
-0.03494555
-0.0348008
-0.1668878
-0.4296405
-0.7985476
-1.036122
-0.8969185
-0.4997095
-0.03363189
0.5629346
1.045475
1.119287
0.9435225
0.7248732
0.5775663
0.4736527
0.4157105
0.4338202
0.3509934
0.1775734
0.08675041
0.08741854
0.1246555
0.2108973
0.2583248
0.1391913
-0.02085981
-0.1603512
-0.3411697
-0.5720165
-0.7308929
-0.5551367
-0.2258056
-0.1589836
-0.3537257
-0.4947919
-0.3784477
-0.2144599
-0.2186254
-0.1972581
0.06979403
0.3576233
0.4507985
0.4314167
0.2608082
-0.08884405
-0.501494
-0.8457171
-0.9682007
-0.774662
-0.3478311
0.2272555
0.9957125
1.71371
1.955623
1.818057
1.722207
1.730202
1.673797
1.481384
0.9720384
0.009277062
-1.104324
-2.086713
-2.99961
-3.698438
-3.880968
-3.622705
-3.16645
-2.490397
-1.469084
-0.3439634
0.5686572
1.407645
2.159328
2.482713
2.477695
2.41942
2.33443
2.266317
2.197618
2.045113
1.783653
1.391474
0.8853506
0.2517665
-0.4651092
-1.111226
-1.571989
-1.701759
-1.546167
-1.418524
-1.327891
-1.08922
-0.8534011
-0.7209018
-0.547553
-0.3676663
-0.2069059
-0.06963887
-0.0786011
-0.1617076
-0.1943905
-0.1161255
0.1224399
0.4215594
0.6758276
0.8313323
0.8087986
0.7242591
0.6810231
0.5224251
0.2674443
0.05107796
-0.148756
-0.2511844
-0.1369628
0.06036454
0.1719636
0.2295175
0.2315315
0.04860435
-0.2601255
-0.4362322
-0.4910159
-0.629631
-0.8063965
-0.902837
-0.8864849
-0.6467877
-0.1923347
0.2192758
0.4481108
0.5513606
0.5725524
0.5338294
0.4744616
0.3954872
0.2225274
0.0280984
-0.04650344
-0.03426256
0.08493417
0.2251115
0.1117074
-0.157175
-0.3085534
-0.3688237
-0.4117276
-0.3463628
-0.1787291
-0.04886346
0.06573557
0.1583661
0.142559
0.03956492
-0.06228353
-0.03796386
0.06194545
0.1362018
0.2419621
0.3938341
0.5664655
0.7225106
0.7190985
0.5179111
0.2805494
0.06711125
-0.1040189
-0.1693186
-0.2563471
-0.3818467
-0.4119464
-0.4186886
-0.5016253
-0.6791524
-0.8291109
-0.8145941
-0.6994291
-0.4884922
-0.1492702
0.2503478
0.6177599
0.7796615
0.684841
0.5105795
0.4297376
0.4845473
0.5610833
0.6093267
0.5878511
0.3679397
0.05192155
-0.2666674
-0.5438698
-0.6227571
-0.610523
-0.6439456
-0.5965667
-0.3614039
-0.1095517
-0.04688365
-0.04059108
0.02361268
0.07227346
0.0368074
0.01666014
0.177368
0.3628023
0.4724003
0.545586
0.4415454
0.2341025
0.1158814
-0.01306758
-0.1655119
-0.2010541
-0.2630361
-0.3800309
-0.3739279
-0.3045242
-0.2120793
-0.135295
-0.07549954
0.02391838
0.03378062
0.006501797
0.006209512
-0.03415145
-0.02262512
-0.02575886
-0.1851117
-0.3754338
-0.4680453
-0.475425
-0.3470896
-0.03605326
0.304747
0.476979
0.4670091
0.3517075
0.1440986
-0.05337534
-0.07502511
0.09246843
0.4065262
0.7426673
0.8894609
0.7957711
0.5525458
0.1606436
-0.3124995
-0.5735469
-0.6090789
-0.5671515
-0.3904422
-0.1167088
0.1550094
0.2613335
0.2116732
0.001972785
-0.3180318
-0.3709536
-0.4004964
-0.2399405
0.3306897
0.7802706
1.218509
1.231731
0.5415726
-0.112078
-0.6303349
-1.055294
-1.08048
-0.81484
-0.6348329
-0.5289501
-0.4458379
-0.4909007
-0.445451
-0.1775589
0.05846239
0.2210515
0.4226218
0.556229
0.600133
0.6052911
0.5433149
0.4141076
0.334238
0.3700615
0.2726334
0.06774957
-0.01500457
-0.06243701
-0.067826
-0.05702177
-0.1163379
-0.196069
-0.2403384
-0.1727004
0.002999589
0.1616898
0.07003205
-0.278867
-0.5988972
-0.7715884
-0.8355028
-0.7859591
-0.595199
-0.4078473
-0.3720045
-0.3458379
-0.1612798
0.1096005
0.3410993
0.6133986
0.916056
1.116291
1.241726
1.293895
1.247631
1.054144
0.6602182
0.2056715
-0.1136927
-0.2642327
-0.3640969
-0.4393337
-0.4124579
-0.3590494
-0.4337864
-0.5649306
-0.6472847
-0.7882819
-0.9205962
-0.7578282
-0.2658401
0.2607094
0.6231144
0.7713271
0.611374
0.287821
-0.04562485
-0.4554835
-0.764882
-0.8505253
-0.8608767
-0.7889921
-0.5930161
-0.3506712
-0.1008192
0.1993755
0.4967744
0.6759393
0.7669586
0.8086068
0.7641463
0.6769617
0.6417899
0.5833256
0.4010161
0.2429859
0.2367925
0.2563648
0.2239906
0.2218228
0.2224979
0.1327398
0.007642995
-0.1234319
-0.3760771
-0.6711027
-0.8299859
-0.8436584
-0.6325659
-0.2853116
-0.1572454
-0.2828838
-0.4340834
-0.4381223
-0.2221375
0.1323335
0.4479971
0.5068251
0.2790201
-0.04999934
-0.3357342
-0.566182
-0.7358224
-0.7496024
-0.6689146
-0.5505909
-0.3301632
-0.01565684
0.3984292
0.7860096
0.9779672
1.042251
1.089849
1.078144
0.9108962
0.6702979
0.5358348
0.4695527
0.3305443
0.1416824
0.02921925
-0.007053903
-0.06607237
-0.2219128
-0.4784697
-0.7074665
-0.814247
-0.8057036
-0.6887378
-0.4336627
-0.2322098
-0.2632426
-0.2652012
-0.1969559
-0.2723102
-0.3921719
-0.384961
-0.3005356
-0.2127693
-0.1419512
-0.1849657
-0.2322836
-0.0654192
0.2911036
0.6805417
0.9355358
0.9275017
0.6607191
0.3831353
0.3403398
0.460927
0.4853912
0.3198757
0.09610429
-0.1481719
-0.2886853
-0.1789082
-0.05877196
-0.01980439
0.06046883
0.05677441
-0.2329319
-0.4392289
-0.06973863
0.5756434
1.353053
1.678966
0.653893
-0.9930971
-2.269399
-2.658508
-1.994528
-0.9162698
-0.03369416
0.3936583
0.5287747
0.6068726
0.5230011
0.3142047
0.1472039
0.01849615
-0.09935581
-0.175954
-0.201861
-0.1815626
-0.1307732
-0.05776769
-0.03402332
-0.1018706
-0.1452975
-0.1551717
-0.1589981
-0.04630134
0.1516657
0.3349588
0.5541083
0.8558515
1.25943
1.610104
1.717449
1.641991
1.305117
0.6945989
0.048078
-0.4950037
-0.9039979
-1.352154
-1.819333
-1.957216
-1.73507
-1.381803
-1.035134
-0.8135729
-0.7243745
-0.5563227
-0.1602591
0.4312292
1.029285
1.463405
1.699105
1.534151
0.8325253
-0.05633193
-0.7475513
-1.206522
-1.292193
-0.8720313
-0.2297372
0.4620727
1.128965
1.522816
1.572694
1.417677
1.136125
0.645134
-0.02924797
-0.6247942
-1.022044
-1.280598
-1.371031
-1.306594
-1.196288
-1.042611
-0.7822823
-0.4824156
-0.2077812
0.0852429
0.3495008
0.555798
0.7830731
1.024999
1.221535
1.415757
1.576074
1.518121
1.27996
1.020794
0.672826
0.1802908
-0.3541079
-0.8530461
-1.257473
-1.506658
-1.580206
-1.458878
-1.220997
-0.9159122
-0.5641594
-0.3943839
-0.4295965
-0.5792679
-0.8516163
-0.959447
-0.7345851
-0.3350483
0.109652
0.4922551
0.6744639
0.6232563
0.5302455
0.5321949
0.67821
1.077513
1.504325
1.499168
1.071018
0.560455
0.1535769
-0.036349
0.05043567
0.2259468
0.2503484
0.1727101
0.1094962
0.0006843951
-0.1393342
-0.1790302
-0.1544658
-0.1871836
-0.3136203
-0.5237834
-0.6635867
-0.6135762
-0.5198477
-0.6047555
-0.8893219
-1.15896
-1.228781
-1.117355
-0.8892636
-0.5393509
-0.2465515
-0.08154549
0.2494286
0.7441348
1.230492
1.771596
2.291501
2.622182
2.733779
2.649555
2.464133
2.195258
1.640189
0.7313793
-0.390578
-1.77265
-3.407096
-4.902118
-5.894645
-6.222887
-5.670344
-4.117726
-1.862576
0.5253534
2.620343
4.169964
4.770998
4.167135
2.740544
1.030679
-0.6226907
-1.794461
-2.197846
-1.875311
-0.8480446
0.801618
2.583527
3.935337
4.678935
4.836084
4.53237
3.9334
3.021155
1.806293
0.353568
-1.233998
-2.69679
-3.870423
-4.667408
-5.059916
-5.19377
-5.171182
-5.01151
-4.664525
-4.018447
-3.040538
-1.851804
-0.6662052
0.4834499
1.609213
2.592863
3.414438
4.06898
4.371638
4.171738
3.653933
2.939997
2.061355
1.338138
0.7901503
0.1877099
-0.381299
-0.7922315
-1.073119
-1.241727
-1.266409
-1.216016
-1.085868
-0.8094227
-0.5593232
-0.3274979
0.05326287
0.3789852
0.4050171
0.2801981
0.2791868
0.3875802
0.4513402
0.4637623
0.4071175
0.2363584
0.03870767
-0.09308326
-0.1637858
-0.2175082
-0.2612828
-0.2880392
-0.2301575
-0.02786463
0.1120305
0.01844965
-0.1393126
-0.2279845
-0.3751427
-0.5737817
-0.6584033
-0.7036696
-0.7990736
-0.8023537
-0.6837141
-0.5780272
-0.3001218
0.2602858
0.667983
0.7603723
0.7999251
0.8086469
0.7335559
0.7894121
0.9344535
0.7335987
0.1292555
-0.5837134
-1.295846
-1.808448
-1.781086
-1.326876
-0.6001367
0.3625254
1.082972
1.287002
1.193485
0.9360539
0.4830673
-0.02321984
-0.3388154
-0.4487576
-0.3499371
-0.07093403
0.1864779
0.2697147
0.2617556
0.2983168
0.2628404
0.1693963
0.1320001
0.05301851
0.06055063
0.1359077
-0.0264948
-0.2247418
-0.1935285
-0.07337273
3.853871e-06
-0.02392257
-0.04850791
-0.03263658
-0.0477787
0.04618778
0.1010605
-0.06913645
-0.2021514
-0.2672227
-0.3135535
-0.3319535
-0.3849027
-0.3674262
-0.2805091
-0.1256731
0.1236199
0.3198195
0.4096569
0.426212
0.3377967
0.1733905
0.1203919
0.1544512
0.163753
0.2499912
0.2849884
0.1633278
0.02294994
-0.05659355
-0.1364677
-0.2787481
-0.307595
-0.2121775
-0.08502595
0.08226245
0.08969207
-0.09788888
-0.2364807
-0.1949473
-0.04077878
0.1049414
0.2172389
0.162084
-0.1802223
-0.5233256
-0.6563433
-0.6748226
-0.5417861
-0.24659
0.05947245
0.3091702
0.5252121
0.6345578
0.57155
0.5540867
0.6076011
0.4637789
0.2183171
0.06129259
0.001036375
0.0797283
0.1991466
0.1366248
-0.07766859
-0.1971849
-0.1835101
-0.166838
-0.1671765
-0.1307868
-0.0943439
-0.1535577
-0.1944405
-0.136452
-0.09432925
0.0112927
0.1367824
0.07792394
-0.0368062
-0.1071188
-0.238542
-0.4549146
-0.7708101
-1.119465
-1.154438
-0.719251
-0.06235102
0.5674344
0.909401
0.8739589
0.6277222
0.34109
0.1700297
0.09432081
0.04031768
0.05351939
0.1038401
0.1014674
0.1263697
0.2756469
0.4455995
0.5914299
0.6707198
0.5316928
0.2088622
-0.1341035
-0.3303333
-0.3377435
-0.3372454
-0.3515199
-0.2615484
-0.123023
0.001187624
0.01936501
-0.2275884
-0.5646089
-0.6940551
-0.6123273
-0.3787367
-0.0876415
0.1355972
0.3428889
0.5430373
0.5563437
0.3732355
0.1611397
0.00410555
-0.07413357
-0.1116562
-0.07322828
0.03315373
0.0384181
-0.03535644
-0.06300049
-0.01459182
0.1077486
0.2745746
0.3956704
0.314843
0.03093652
-0.263019
-0.3832927
-0.2806706
-0.09197119
0.07053044
0.2060561
0.2296775
0.1217792
0.0990894
0.1802888
0.125569
-0.05871089
-0.2264326
-0.3811338
-0.5331578
-0.5480334
-0.3915385
-0.2334355
-0.08993711
0.02841346
0.02236489
-0.008395068
-0.008482423
-0.08867183
-0.2232594
-0.21266
-0.06228218
0.04233261
0.1612508
0.3996616
0.594892
0.6044151
0.5889285
0.6166486
0.5573136
0.4206415
0.1496059
-0.2205653
-0.4228098
-0.4225091
-0.3505732
-0.217271
0.0009777831
0.1892508
0.194882
0.03010534
-0.2296504
-0.5277329
-0.662089
-0.4573618
-0.1480895
-0.02690398
-0.03781576
-0.08956245
-0.1069683
-0.03113489
-0.03756535
-0.02572344
0.3265128
0.6124692
0.37444
0.1365023
0.4196117
0.8672472
0.8556857
0.3844376
-0.1713585
-0.7481824
-1.250407
-1.537099
-1.619427
-1.424579
-0.9380159
-0.2288398
0.7404947
1.85008
2.633583
2.849493
2.58615
2.002968
1.323753
0.6525351
0.06604219
-0.5386794
-1.287815
-1.98823
-2.604739
-3.057928
-3.103096
-2.785917
-2.301115
-1.775161
-1.188168
-0.5302882
0.1744768
0.8916751
1.501044
1.967461
2.220207
2.202201
2.036128
1.89483
1.85515
1.774062
1.527508
1.102778
0.5769222
0.1588524
-0.1191235
-0.3280924
-0.5004784
-0.7377936
-0.9994497
-1.200092
-1.411327
-1.595384
-1.615058
-1.517772
-1.266949
-0.7458612
-0.2170491
0.1206653
0.2871422
0.1894357
-0.1169602
-0.3810807
-0.3646343
-0.1051718
0.2610617
0.7327986
1.147332
1.317068
1.20634
0.9543092
0.8174808
0.7595598
0.5455049
0.2459134
0.07963939
-0.018762
-0.1933435
-0.3699097
-0.3815913
-0.212777
-0.09954908
-0.2372986
-0.5462005
-0.9301091
-1.225935
-1.189133
-0.8970594
-0.5358781
-0.1974304
0.07004076
0.3718208
0.742122
0.9706218
0.8709169
0.6170996
0.4431627
0.3391664
0.3424299
0.4765702
0.5895743
0.5234892
0.3587224
0.220468
-0.02202604
-0.2939856
-0.4817461
-0.7580888
-1.003769
-1.077737
-1.044205
-0.8661638
-0.6813762
-0.6176909
-0.6163427
-0.611791
-0.410378
-0.03035956
0.3341098
0.7403368
1.051939
1.159701
1.234194
1.122637
0.7553846
0.4155056
0.2318268
0.08388156
-0.1097552
-0.2508603
-0.3681767
-0.5115548
-0.4961713
-0.2343716
0.03249886
0.08010306
0.02727513
0.0234068
0.1229062
0.3518529
0.5322203
0.5506925
0.4711894
0.2213443
-0.230652
-0.6195774
-0.8029312
-0.9220252
-0.9472409
-0.8384901
-0.8166373
-0.8779644
-0.7401834
-0.3476989
0.1691114
0.6629699
0.9492261
0.9636664
0.883259
0.9050162
0.9870473
1.050443
1.078483
0.9686443
0.7268404
0.4499183
0.1192393
-0.1661477
-0.2781468
-0.3934405
-0.7035436
-1.042593
-1.155399
-1.083192
-0.9039561
-0.5862502
-0.2917475
-0.1881683
-0.1596938
-0.04476832
0.1175888
0.1990444
0.2526829
0.2958316
0.2283906
0.1657162
0.1685626
0.1217423
-0.007009461
-0.1373623
-0.2948557
-0.5139944
-0.53596
-0.3542084
-0.2250147
-0.04686911
0.2822797
0.5267418
0.4804038
0.2615642
0.05097625
-0.1935917
-0.4030911
-0.4306716
-0.3655261
-0.1518855
0.212982
0.437623
0.5257666
0.6229604
0.6501034
0.5946222
0.5367439
0.4010488
0.2167
0.1799457
0.257341
0.24481
0.07154548
-0.2084023
-0.604409
-0.8894603
-0.7639649
-0.4203924
-0.1269199
0.05356357
0.1102627
0.0006891892
-0.206899
-0.3258461
-0.3344119
-0.2215272
0.02165835
0.2778744
0.4240494
0.4638309
0.4058055
0.2472388
0.1935832
0.2839319
0.2656376
0.1183705
0.03296298
-0.03473334
-0.1702008
-0.2074298
-0.09307695
0.01960382
0.04866069
0.008495619
-0.06409975
-0.08638947
-0.03996158
-0.02508023
-0.03039348
0.009619541
0.04006042
-0.02552227
-0.1957182
-0.3896733
-0.5548819
-0.6815134
-0.7473639
-0.7940336
-0.7718294
-0.5289676
-0.2152571
-0.03534082
0.0913988
0.2219022
0.3323463
0.4491705
0.5125895
0.3884841
0.1893
0.1798532
0.3446261
0.4302036
0.3826275
0.308614
0.2206927
0.209279
0.3424911
0.5755345
0.7896559
0.8230697
0.7117196
0.5392942
0.342473
0.0947686
-0.2088807
-0.331624
-0.2198526
-0.1160175
-0.1769074
-0.3577797
-0.5457108
-0.6987152
-0.710438
-0.5781128
-0.4959128
-0.4878606
-0.4418752
-0.406689
-0.4541553
-0.4329955
-0.3716045
-0.4326919
-0.3868659
-0.1207149
0.1338345
0.3284946
0.5260062
0.61839
0.5264523
0.5065175
0.7551512
0.8472481
0.5286106
0.1228253
-0.3447414
-0.8300042
-0.9839267
-0.7864177
-0.4515885
-0.03076933
0.4426417
0.7190988
0.7594836
0.72098
0.620667
0.4857711
0.3351993
0.2136975
0.1694816
0.1682082
0.1019443
-0.02941269
-0.08355241
-0.1414567
-0.2906883
-0.469606
-0.6342646
-0.6766921
-0.6245207
-0.5363038
-0.370055
-0.1917164
-0.01041432
0.1356276
0.07157169
-0.2026134
-0.4604087
-0.5075299
-0.3224554
0.06730115
0.5036756
0.7792359
0.9112312
0.9143835
0.7226852
0.4038528
0.0578865
-0.2533193
-0.407185
-0.4365605
-0.4781018
-0.4920487
-0.4584718
-0.3776416
-0.16922
0.06277175
0.1202243
0.09800933
0.1263149
0.2119772
0.3846085
0.4082931
0.2226415
0.1230459
0.1294945
0.1492221
0.1649213
0.1909651
0.2101339
0.2529058
0.3709391
0.3350973
0.1306889
0.009924875
-0.05854642
-0.1582567
-0.2209359
-0.2249545
-0.299915
-0.4841816
-0.6359907
-0.740771
-0.8125987
-0.6713111
-0.271624
0.1544422
0.4509426
0.5222114
0.3399875
0.1168321
-0.01624817
-0.1072879
-0.1396711
-0.07367122
0.003909574
0.0247749
0.08637159
0.1934515
0.2793145
0.4081543
0.4984336
0.4625365
0.3798023
0.2290633
-0.001248271
-0.304381
-0.5976892
-0.800297
-0.8768417
-0.686402
-0.3242387
0.03792882
0.2990679
0.4307353
0.5104604
0.4611101
0.3755811
0.360741
0.3224132
0.3296844
0.318218
0.1061959
-0.1303296
-0.141344
-0.0599229
-0.1365572
-0.3327382
-0.4438155
-0.4523249
-0.4426292
-0.383189
-0.3031786
-0.1814568
0.1250097
0.4889328
0.6413259
0.6101537
0.5123344
0.3801529
0.2889864
0.1407209
-0.1374821
-0.3720933
-0.4444325
-0.3479334
-0.1344319
0.2271723
0.5878883
0.6097993
0.4031471
0.1994915
-0.0334282
-0.2898975
-0.5113094
-0.7542806
-0.958054
-0.9246228
-0.7887641
-0.6851904
-0.5093504
-0.277554
-0.08514031
0.0396926
0.1546429
0.2254464
0.203872
0.1916876
0.3185188
0.5573939
0.7264087
0.7918292
0.7244684
0.5027504
0.3071876
0.1129569
-0.1263418
-0.2461551
-0.2295515
-0.1517892
-0.01735469
0.2071157
0.354089
0.2737528
0.2129661
0.2444432
0.1453726
-0.02154932
-0.08588832
-0.1300168
-0.1617931
-0.1042368
-0.08323912
-0.07431022
-0.0355351
-0.143132
-0.2715892
-0.169278
0.07253207
0.2187418
0.2694198
0.3366052
0.266858
0.03621493
-0.1547471
-0.3552159
-0.5540125
-0.5648085
-0.4709063
-0.5100381
-0.6561192
-0.7299488
-0.8115358
-0.9544244
-0.968434
-0.9276596
-0.8680913
-0.4848541
0.1054783
0.5888206
1.072866
1.549256
1.773642
1.744885
1.533728
1.092901
0.5960631
0.2656142
0.06248479
-0.02212775
0.05145016
0.1993916
0.3281594
0.3855044
0.3297266
0.1516953
-0.1102379
-0.3535069
-0.545296
-0.7646619
-0.9650475
-1.043829
-1.043941
-1.018129
-0.9437523
-0.8394153
-0.7652706
-0.7243349
-0.6408588
-0.3540649
0.1703783
0.7253944
1.198665
1.561039
1.755591
1.790771
1.708196
1.622831
1.439899
0.9507071
0.3203019
-0.3085299
-0.9998214
-1.707482
-2.409664
-3.053727
-3.350908
-3.047544
-2.222914
-1.151072
0.07281288
1.406839
2.497097
3.011324
2.851754
1.967861
0.5827951
-0.8342297
-1.964188
-2.571147
-2.475363
-1.75719
-0.5436693
1.037349
2.635222
3.83502
4.45206
4.592205
4.242865
3.325022
2.197754
1.106955
-0.02797155
-0.975641
-1.54173
-1.999824
-2.598189
-3.306829
-4.025411
-4.563038
-4.783267
-4.664734
-4.106119
-3.154279
-1.996577
-0.8410529
0.1564337
0.9972559
1.5966
1.922894
2.135237
2.40182
2.712012
2.8882
2.841476
2.530987
2.067549
1.675315
1.387708
1.033524
0.5217275
0.01375581
-0.4241092
-0.774769
-0.9793862
-1.168132
-1.3219
-1.118573
-0.6084044
-0.2602523
-0.162784
-0.09802116
0.05084952
0.2992311
0.5362108
0.5896372
0.3922065
0.1649165
-0.001266247
-0.2201857
-0.3322242
-0.3891876
-0.4844683
-0.3603968
-0.1431127
-0.1053017
-0.2083061
-0.3588575
-0.4627753
-0.4490068
-0.2879946
-0.09702883
0.02819413
0.1292699
0.2571957
0.4713393
0.5659185
0.3349703
-0.07178313
-0.4614767
-0.6880955
-0.6652253
-0.4718514
-0.2738704
-0.08983717
0.1786313
0.5253959
0.9106843
1.156504
0.996393
0.5484027
0.08315463
-0.3168146
-0.5343966
-0.5015995
-0.3658187
-0.253103
-0.1207444
-0.06583831
-0.2124434
-0.3253869
-0.2879792
-0.2739729
-0.3064454
-0.3165083
-0.2216733
0.00848251
0.2420277
0.3935092
0.3819642
0.2026573
0.05839054
-0.02056294
-0.09897933
-0.1272673
-0.09255183
0.02067582
0.231434
0.4337308
0.4778621
0.4139865
0.2832383
0.04272213
-0.1781235
-0.2930868
-0.3370633
-0.3393372
-0.2451897
-0.06089935
0.1342807
0.4663167
0.7294402
0.6137713
0.3578568
0.09908292
-0.1604606
-0.3425526
-0.2895319
-0.07819231
-0.09453044
-0.06539151
0.06609738
-0.09419071
-0.2560889
-0.2329879
-0.2262496
-0.2179254
-0.1202734
-0.04357562
0.01747294
0.147742
0.1863514
0.01937643
-0.2813415
-0.5880831
-0.792133
-0.8294488
-0.6476259
-0.2910293
-0.01377468
0.1366155
0.3151647
0.4218005
0.4658078
0.5962263
0.7222103
0.7064462
0.652384
0.6095508
0.4245565
0.2534281
0.2689997
0.2785653
0.1743933
0.03471579
-0.07165948
-0.1510324
-0.1893726
-0.1159956
0.004853677
0.05798937
0.04124571
-0.1060151
-0.3682375
-0.5716051
-0.6416245
-0.5863988
-0.4766823
-0.3736535
-0.3338772
-0.3670579
-0.3273951
-0.206037
-0.0346961
0.2048009
0.3721593
0.4544754
0.5265625
0.5042307
0.373771
0.2373677
0.1323766
-0.01297758
-0.2448599
-0.470612
-0.5970095
-0.6216592
-0.5533662
-0.4458314
-0.3726683
-0.3101863
-0.1858501
0.03623657
0.3501285
0.6720767
0.7942991
0.6694077
0.491507
0.3898981
0.40111
0.4675114
0.520108
0.4778477
0.280876
0.07123072
-0.1470859
-0.3875054
-0.4433481
-0.4298352
-0.5075742
-0.4880799
-0.382015
-0.2843714
-0.1111985
0.09825241
0.2047111
0.1669575
0.1008056
0.1372529
0.2860968
0.4279764
0.3857333
0.1465894
0.01854621
0.1578422
0.2518962
0.193394
0.1202044
-0.05220034
-0.3365642
-0.5317342
-0.6242647
-0.7695023
-0.8586575
-0.734248
-0.4864199
-0.1781144
0.04089975
0.1285128
0.4254559
0.794776
0.7235583
0.2286567
-0.2070721
-0.2100588
0.0270078
0.1847325
0.2786364
0.3919457
0.4765131
0.4933296
0.4721945
0.2899485
-0.107483
-0.4578445
-0.5427711
-0.373777
-0.191259
-0.2475536
-0.4301288
-0.5461034
-0.5588406
-0.503999
-0.4408355
-0.3237563
-0.155165
0.0476601
0.2648505
0.3742708
0.4019491
0.4486151
0.4856243
0.4571567
0.3812831
0.3905807
0.5873167
0.7445983
0.62397
0.3277142
0.03446155
-0.05966729
0.08636329
0.2772511
0.4050077
0.3462935
-0.01227732
-0.5006799
-0.8457431
-0.8431987
-0.6525682
-0.6446993
-0.8358545
-1.233736
-1.654112
-1.570083
-0.870399
0.2003796
1.091131
1.191511
0.808874
0.6973581
0.990403
1.436056
1.616288
1.4457
1.239893
0.6814851
-0.4503423
-1.667437
-2.40348
-2.270196
-1.44266
-0.4154527
0.4728365
1.099652
1.400354
1.347647
1.11618
0.8838468
0.7060804
0.5403772
0.3004063
-0.172825
-0.9013743
-1.608791
-2.152405
-2.47234
-2.402854
-1.971327
-1.359815
-0.6360953
0.128772
0.7796981
1.225676
1.451905
1.560031
1.63624
1.700292
1.687374
1.437034
1.124498
0.9199905
0.6863109
0.4372942
0.1736296
-0.1773132
-0.5318604
-0.704945
-0.6658003
-0.6596562
-0.821624
-1.018964
-1.119093
-1.04162
-0.7412089
-0.4228107
-0.2244377
0.01706673
0.2141504
0.2456908
0.3192399
0.4649133
0.494127
0.388805
0.1716118
-0.1545151
-0.3771125
-0.3616887
-0.1857464
0.09402095
0.3325794
0.4134537
0.406451
0.3829158
0.3344854
0.2425071
0.149313
0.1070063
0.06392528
-0.06265992
-0.2019198
-0.3119829
-0.4557126
-0.543609
-0.4511826
-0.2540739
-0.122328
-0.04275702
0.01988513
-0.02068491
0.01148524
0.2821567
0.5670084
0.7113739
0.7101738
0.4843078
0.08595992
-0.2595251
-0.4739496
-0.7053477
-0.9472792
-1.037094
-0.9660921
-0.7270492
-0.3537813
-0.04169499
0.1466103
0.2623592
0.2482583
0.1240207
0.09963214
0.2230852
0.3684587
0.5230047
0.61431
0.4992337
0.3000138
0.2788882
0.3935047
0.4279473
0.4018219
0.3870472
0.3198669
0.1500674
-0.03080997
-0.09105863
-0.08639935
-0.03452195
0.06857983
0.0462709
-0.03359186
-0.01117398
-0.05162778
-0.2027488
-0.312748
-0.4381241
-0.6404607
-0.7441592
-0.6034236
-0.2993185
0.01325091
0.263755
0.3829283
0.3438237
0.2101764
-0.01018288
-0.2154341
-0.2373583
-0.142645
0.02347785
0.2751041
0.4602371
0.4968269
0.3246581
-0.0585972
-0.430128
-0.5926083
-0.4811524
-0.3043272
-0.266297
-0.1709424
0.06779896
0.2501885
0.3422655
0.489531
0.6472306
0.5953079
0.3255507
0.01341269
-0.2600661
-0.3719208
-0.2396803
-0.1418485
-0.1750745
-0.121276
-0.06454094
-0.1283192
-0.1766319
-0.1700436
-0.1929127
-0.2018321
-0.1384013
-0.07283232
-0.08111916
-0.03548158
0.1726854
0.2534465
0.06641162
-0.1029553
-0.07102163
0.1293664
0.2816309
0.1702551
-0.08653393
-0.274538
-0.3799468
-0.3993644
-0.2578802
-0.01034783
0.1764003
0.3258498
0.5477621
0.6985288
0.7236543
0.7498863
0.6778994
0.457919
0.2227279
-0.03360955
-0.3424755
-0.5855777
-0.6881377
-0.7426484
-0.7489368
-0.635155
-0.4557601
-0.1890838
0.2442797
0.6934967
0.9152542
0.9396822
0.8967965
0.6408882
0.1459336
-0.2721154
-0.5306175
-0.6861606
-0.7029803
-0.6485584
-0.527634
-0.3052723
-0.06986958
0.02815426
0.04795051
0.1776927
0.2504088
0.1202889
-0.0372224
-0.2041752
-0.4711293
-0.6121302
-0.3991681
-0.1114022
-0.003165197
0.01403467
-0.01867024
-0.05134812
0.02649074
0.22531
0.3903011
0.4469926
0.5145872
0.52178
0.4305995
0.3823258
0.1791812
-0.2267054
-0.4280849
-0.3774847
-0.231148
0.06877842
0.3937188
0.464231
0.3058488
0.1408359
0.02429902
0.004301703
0.16716
0.3613758
0.3109046
0.004264188
-0.26443
-0.3536392
-0.2871738
-0.1728981
-0.2694335
-0.4933317
-0.5136408
-0.2308163
0.1869652
0.4602916
0.4253722
0.123839
-0.1925447
-0.3730609
-0.4881425
-0.5526406
-0.4628316
-0.2699543
-0.1194264
0.06842592
0.1793194
0.1038781
0.1198444
0.2129601
0.1745955
0.01363698
-0.1779128
-0.2565977
-0.2290809
-0.1800129
-0.02009831
0.1502154
0.163422
0.2105871
0.3494665
0.4630435
0.623627
0.7584482
0.7437897
0.7269144
0.735996
0.5774841
0.3018485
0.08846092
-0.1523547
-0.4295496
-0.533042
-0.5010605
-0.6414885
-1.008084
-1.273043
-1.256023
-0.9592612
-0.483533
-0.08110242
0.1528478
0.2790687
0.3638073
0.4179364
0.5234652
0.6944146
0.7282979
0.659332
0.578606
0.3831105
0.1428418
0.05032968
0.05673983
0.06290898
0.08428171
0.03231766
-0.1609885
-0.5282432
-0.8343707
-0.7935239
-0.6232566
-0.4306573
-0.2512524
-0.253243
-0.3480217
-0.4125349
-0.3630775
-0.2273464
-0.02759407
0.2942202
0.5712004
0.7221323
0.7831731
0.6944121
0.54751
0.5034466
0.4466904
0.2802502
0.2382782
0.3035602
0.2596097
0.1495687
-0.01092052
-0.1705869
-0.2174405
-0.2075718
-0.1958814
-0.1456892
-0.04537694
-0.003693197
-0.0330203
-0.06434796
-0.213432
-0.4640558
-0.6738636
-0.8401312
-0.86724
-0.6525104
-0.2776809
0.1092345
0.3637012
0.4821364
0.543213
0.5213196
0.4530913
0.3336401
0.002219851
-0.4431694
-0.6600145
-0.522415
-0.1976166
0.1437095
0.3836726
0.4647097
0.5022758
0.5823264
0.6191028
0.5128185
0.250659
-0.1073744
-0.3705408
-0.4143755
-0.3591196
-0.3179717
-0.3496464
-0.4722463
-0.6226336
-0.638667
-0.3464482
0.008063178
0.12883
0.2396446
0.455243
0.5086237
0.4006685
0.3868362
0.4117742
0.3764307
0.3913478
0.3952393
0.3191349
0.2343638
0.09483218
-0.07335662
-0.1482678
-0.1798905
-0.1612676
-0.09721033
-0.05689976
-0.006243349
-0.06507251
-0.1690346
-0.1832694
-0.2796189
-0.4006527
-0.4738071
-0.5934789
-0.6633385
-0.6246181
-0.608383
-0.6071308
-0.4468417
-0.2156823
-0.09097622
-0.04563229
0.005297674
0.1394433
0.3464294
0.5842888
0.7438502
0.6935458
0.5259357
0.4054062
0.4427951
0.7014088
1.010651
1.03733
0.8063715
0.6002163
0.3996694
0.230014
0.2409688
0.2761458
0.1930861
0.03173017
-0.1956413
-0.5657417
-1.17103
-1.811072
-2.200618
-2.32829
-2.066525
-1.38313
-0.7010688
-0.2031009
0.2166399
0.5318231
0.6710137
0.6592957
0.6790915
0.8275673
1.080127
1.314835
1.430783
1.550885
1.53999
1.305429
1.185241
1.129996
0.853716
0.4748622
0.194188
-0.02967797
-0.2854086
-0.4682797
-0.5526477
-0.7519365
-1.087484
-1.352131
-1.536076
-1.739442
-1.848421
-1.873107
-2.033087
-2.092303
-1.750009
-1.229346
-0.6411209
-0.01659402
0.4458362
0.7206883
0.8931015
1.111277
1.352815
1.451191
1.38297
1.075542
0.7500021
0.7030401
0.5935439
0.2784222
0.1159098
0.2303909
0.5471745
0.9158653
1.21
1.321552
1.15102
0.7857157
0.394582
0.1971124
0.1775568
0.0002342377
-0.3954283
-0.7069413
-0.8525325
-1.012013
-1.178054
-1.357578
-1.59118
-1.677037
-1.514133
-1.202963
-0.8431097
-0.485365
-0.04758926
0.5651684
1.42786
2.415689
3.004259
3.144529
3.158547
2.756731
1.741414
0.5267637
-0.5534735
-1.567213
-2.568068
-3.47394
-4.20121
-4.522876
-4.244117
-3.31153
-1.870838
-0.2045938
1.382379
2.371423
2.51736
2.007292
0.9718325
-0.3298197
-1.479134
-2.19008
-2.300352
-1.67834
-0.3913517
1.282557
3.073791
4.558158
5.366853
5.469838
4.974245
4.115753
3.066972
1.865857
0.6645606
-0.5276274
-1.743205
-2.729567
-3.415036
-3.868609
-4.007585
-3.938546
-3.77493
-3.394398
-2.806367
-2.159022
-1.452806
-0.64754
0.1163229
0.7108727
1.153886
1.409131
1.447364
1.409672
1.384991
1.302815
1.205125
1.120186
1.018051
1.027292
1.140568
1.067065
0.697298
0.2739031
-0.1065078
-0.484035
-0.7410854
-0.8303415
-0.8403589
-0.7513048
-0.4408381
-0.0372895
0.1748577
0.2021774
0.09869835
-0.08141308
-0.01078728
0.3214449
0.6382669
0.8191128
0.7340387
0.4708515
0.1978641
0.06883778
0.1549457
0.2893845
0.2100002
-0.0517515
-0.3163378
-0.7601147
-0.6979439
-0.738461
-0.5701227
1.899726
2.871382
0.1385917
-2.599185
-3.791966
-3.623012
-2.585967
-1.491126
-0.4857891
1.051147
1.931609
1.198236
0.9808307
1.525053
1.644334
1.486671
1.207425
0.9364234
0.716372
0.4707943
0.2509707
0.08497413
-0.1413784
-0.4353909
-0.6631618
-0.796855
-0.7349007
-0.528032
-0.3456874
-0.3004284
-0.2774659
-0.3925236
-0.7227119
-0.7493712
-0.7741154
0.3751803
2.023131
0.6838551
-1.274148
-1.797834
-2.291705
-2.099075
-1.080575
0.3427623
1.563909
2.07196
2.122262
1.701824
0.9481328
0.144028
-0.3488075
-0.3627526
-0.1835454
0.005331662
0.194227
0.2596321
0.1530566
0.1766277
0.3730957
0.4330015
0.4086781
0.3738577
0.1953309
0.03553787
0.07540258
0.1484064
0.1485916
0.0909878
-0.09680689
-0.4029041
-0.6013729
-0.5426545
-0.5164543
-0.6498387
-0.6606017
-0.5456524
-0.3434496
0.0655064
0.419736
0.3716303
0.1465851
0.08863096
0.1281541
0.1428978
0.1208683
0.0771501
0.01997852
-0.08198392
-0.1756044
-0.269641
-0.345595
-0.3266059
-0.3534893
-0.4076304
-0.3518827
-0.2543161
-0.2001809
-0.1641567
0.004291124
0.2788085
0.5389401
0.7813148
0.8936576
0.810427
0.6029139
0.3101513
0.05822865
-0.04990103
-0.217473
-0.4462138
-0.4374236
-0.2348129
-0.05787576
0.01504224
0.08529614
0.1679922
0.06895297
-0.05234244
-0.004868044
0.04793496
0.1293948
0.2540124
0.1720086
-0.1244237
-0.3622993
-0.471033
-0.55094
-0.526328
-0.3747892
-0.1910301
0.0693479
0.3233637
0.3730978
0.2439605
0.07060613
-0.04819589
-0.07039665
-0.07447737
-0.1920864
-0.3369578
-0.2769722
-0.1128151
-0.06658722
-0.05469602
0.1109964
0.3780863
0.4900024
0.3913498
0.1680674
-0.04587438
-0.1366447
-0.1185935
-0.0156913
0.1391483
0.5350116
0.7492622
0.3735244
0.2298655
0.2510319
-0.03180388
-0.1535585
-0.110683
-0.06115662
0.08598682
0.2527989
0.243244
0.07523607
-0.002569878
-0.01457845
-0.08643284
-0.1576573
-0.1752318
-0.2665349
-0.4877561
-0.6696027
-0.7628738
-0.7555096
-0.6327861
-0.4816135
-0.2864628
-0.07484584
0.08336857
0.2145747
0.296853
0.3001245
0.2532015
0.2629719
0.3586894
0.3646356
0.2644255
0.1667872
0.04124604
-0.08723807
-0.1266504
-0.03029966
0.03873248
-0.0569706
-0.1202534
-0.1756939
-0.3263485
-0.3275127
-0.09221394
0.1599923
0.3440708
0.6144814
0.7877191
0.6216277
0.4087035
0.2101671
-0.1044308
-0.3107742
-0.3533345
-0.4064734
-0.4375291
-0.3703344
-0.3618354
-0.4577878
-0.4446464
-0.2078565
0.1308749
0.4379275
0.7453405
0.8961898
0.705185
0.3812167
0.09441229
-0.04367886
0.04534002
0.0984261
-0.04070285
-0.2537207
-0.5118411
-0.715636
-0.6132097
-0.09626288
0.6122415
1.045009
1.09346
0.9450501
0.4775771
-0.1720665
-0.5916048
-0.8193213
-1.006348
-1.13452
-0.9958237
-0.5676456
-0.3202059
-0.4021861
-0.5181797
-0.3988552
0.004056044
0.3152908
0.2917577
0.1112254
-0.177615
-0.5469489
-0.8102878
-0.9080086
-0.7738293
-0.2588999
0.5880504
1.534106
2.412345
3.043356
3.134813
2.596183
1.793997
1.092351
0.4259998
-0.2096663
-0.8485407
-1.725616
-2.665215
-3.366121
-3.617591
-3.473686
-3.230199
-2.734923
-2.029777
-1.278917
-0.3370466
0.7135742
1.71774
2.467556
2.813699
2.831012
2.746594
2.694373
2.580081
2.450902
2.219548
1.723998
1.117529
0.5513455
0.03939645
-0.4517666
-0.8202063
-1.034506
-1.330469
-1.640968
-1.722205
-1.71386
-1.752509
-1.717788
-1.535452
-1.167274
-0.6493286
-0.2369516
-0.1100599
-0.14864
-0.09740161
0.01933101
0.04192388
0.1618132
0.3860977
0.4031741
0.2140363
0.03234687
-0.03172554
0.08072115
0.3643054
0.5884361
0.6227177
0.5727031
0.4548415
0.3519166
0.3805946
0.4327509
0.497547
0.7039725
0.8787369
0.8803983
0.7761201
0.4501851
-0.03563759
-0.4062159
-0.5645572
-0.6574538
-0.8753859
-1.09395
-1.19525
-1.181955
-0.9814231
-0.6325268
-0.2976493
-0.08680809
0.04311021
0.08311861
0.01744231
-0.01558251
0.06426094
0.1343693
0.1123153
0.1025468
0.09469671
0.08830307
0.1785677
0.2393265
0.2250875
0.3159527
0.4685353
0.5887722
0.7191154
0.7841032
0.7343251
0.5162067
0.1299541
-0.2096352
-0.4309341
-0.492418
-0.335499
-0.1428853
-0.006667092
0.1203814
0.1565506
0.09271272
0.03929459
-0.05216918
-0.2025977
-0.2333054
-0.1341893
-0.02713192
0.05408675
0.04503533
-0.08747381
-0.3279644
-0.4858426
-0.3806506
-0.1989241
0.01687944
0.2768781
0.3569879
0.1560529
-0.2579289
-0.5983847
-0.6996859
-0.5813884
-0.25429
0.06373821
0.3164842
0.576308
0.7005717
0.6306341
0.4525778
0.2248879
-0.007473866
-0.1937627
-0.3615567
-0.4963947
-0.4686847
-0.3042052
-0.1555954
-0.01735157
0.2119988
0.4118835
0.467352
0.5545617
0.6918183
0.6961267
0.5340685
0.3584578
0.2149537
-0.04799002
-0.3052809
-0.4335899
-0.5664743
-0.5924423
-0.4522378
-0.3519014
-0.2523799
-0.08568375
-0.04929585
-0.125626
-0.1070094
0.116678
0.3844134
0.2712792
-0.1173614
-0.2857636
-0.06103427
0.3164881
0.3203622
-0.1236888
-0.5993519
-0.8790786
-0.9796124
-0.9837068
-0.9259349
-0.7169601
-0.2407101
0.3678076
0.8029768
0.9676385
0.9980634
0.9173002
0.6609201
0.3387944
0.07800753
-0.02925432
0.09568144
0.3913283
0.5989004
0.5878869
0.5120173
0.3744275
0.1146599
-0.1275715
-0.2567884
-0.3021632
-0.2181362
0.003308891
0.1535593
0.1879541
0.2413717
0.1837425
0.01039552
-0.1144975
-0.382844
-0.7903501
-0.9591659
-0.7771522
-0.4136576
-0.1252695
-0.006971837
-0.01807499
-0.2587638
-0.5902156
-0.6715159
-0.45987
-0.09730203
0.2208428
0.3562583
0.3422093
0.3084465
0.3345609
0.3840193
0.4434595
0.5084538
0.5877311
0.6264395
0.4919956
0.1984377
-0.1570611
-0.4030575
-0.4386788
-0.3820885
-0.2878666
-0.1404017
0.05224125
0.3155052
0.5672315
0.5653237
0.2743252
-0.06263992
-0.3913719
-0.7131867
-0.8218127
-0.6983216
-0.5557721
-0.4349668
-0.2043899
0.04580675
0.1730054
0.2860804
0.3086689
0.0863018
-0.106576
-0.01331438
0.2617008
0.641012
0.9849738
1.055687
0.8551783
0.5389916
0.2163969
-0.1351189
-0.3937796
-0.4828653
-0.5615377
-0.5426082
-0.4449766
-0.448857
-0.4483232
-0.4070439
-0.4184719
-0.4297245
-0.3317377
-0.1208697
0.09975399
0.2453197
0.3173609
0.3573066
0.3969786
0.4618883
0.4282825
0.1965899
0.007208766
-0.106986
-0.3885874
-0.6995817
-0.7533327
-0.5228527
-0.1621228
0.1794372
0.400814
0.4051401
0.3090272
0.3427918
0.5129023
0.7292804
