0.05167916
0.3082008
0.3246349
0.4372461
0.5259308
0.4626763
0.3088877
0.1795156
0.221566
0.3187166
0.3837599
0.3601122
0.2046092
0.02137845
-0.1265896
-0.2403199
-0.3119489
-0.3782498
-0.4418412
-0.4373089
-0.4033823
-0.3281441
-0.1087835
0.08618455
0.08619518
-0.03421927
-0.2046507
-0.3457058
-0.3886783
-0.3262898
-0.2162303
-0.1205205
-0.01447424
0.1451438
0.3233822
0.3926868
0.3883254
0.4409407
0.5464918
0.6600035
0.6670064
0.487729
0.1482528
-0.215063
-0.4431432
-0.6716261
-0.9914598
-1.220372
-1.273573
-1.110554
-0.6866287
-0.1680866
0.1190998
0.1524286
0.2943938
0.6342859
0.9051528
0.897916
0.6484664
0.3989054
0.2617003
0.2255515
0.4680473
1.115836
1.456832
0.952108
0.6271439
0.8185762
0.4701507
-0.3323271
-0.6796908
-0.5252339
-0.4900122
-0.7429599
-0.8859352
-0.7312576
-0.403268
-0.2070131
-0.2111668
-0.2081468
-0.3038221
-0.578789
-0.8811568
-1.163264
-1.353231
-1.292915
-0.9519282
-0.4929156
-0.02340006
0.4397263
0.7709349
0.8792772
0.8376865
0.79956
0.8273004
0.8700234
0.933843
0.9411804
0.7721598
0.5451375
0.3502231
0.1279291
0.01748363
0.1440544
0.2724213
0.197467
-0.02894334
-0.3021927
-0.505623
-0.5497327
-0.4308048
-0.2359636
-0.09337878
-0.08300597
-0.2000364
-0.291371
-0.2021825
-0.04478297
-0.005556385
-0.05082079
-0.09678432
-0.2099833
-0.4245189
-0.6460512
-0.8831207
-1.059516
-0.9038984
-0.5091997
-0.1966655
0.05160622
0.3935954
0.7440981
0.8501866
0.6906556
0.5099243
0.458266
0.5115713
0.5555385
0.5599321
0.5492688
0.429017
0.3410774
0.4371796
0.5066482
0.577979
0.7981313
0.9169796
0.7751284
0.5908406
0.4423074
0.2393937
0.01187032
-0.2961932
-0.7317043
-1.158048
-1.488567
-1.785788
-2.089534
-2.272675
-2.286742
-2.259639
-2.244229
-2.139773
-1.793822
-1.206556
-0.4473257
0.5017205
1.556465
2.491571
3.072103
3.199817
2.989151
2.589165
2.115924
1.583511
0.9716192
0.5361946
0.4004755
0.2463156
-0.1310892
-0.5782528
-0.9252486
-1.232161
-1.51581
-1.576461
-1.296518
-0.806271
-0.3527225
0.002277194
0.3754863
0.7440678
1.049845
1.270307
1.269874
1.057693
0.8186778
0.5419627
0.146071
-0.2250305
-0.4055468
-0.408822
-0.2882134
-0.1048987
0.02448812
0.1172393
0.1700883
-0.07132149
-0.6155541
-1.200878
-1.829434
-2.476406
-2.858204
-2.949797
-2.903535
-2.628949
-2.047473
-1.255474
-0.4084232
0.3991899
1.187846
1.929937
2.539932
2.905869
2.902529
2.550782
2.077652
1.688736
1.40748
1.2369
1.101599
0.8638114
0.5754985
0.3572773
0.2162313
-0.00949169
-0.500914
-1.153552
-1.63403
-1.775496
-1.730479
-1.57784
-1.188894
-0.5938709
0.03092702
0.5661705
0.9046158
0.9717494
0.7518572
0.3365658
-0.04737056
-0.1877356
-0.1292522
-0.1111539
-0.1622649
-0.243746
-0.4115624
-0.5945722
-0.641354
-0.5347631
-0.3529259
-0.08785839
0.1815182
0.3190589
0.3410815
0.3495928
0.4042159
0.4911115
0.5528557
0.5111196
0.4057145
0.2941622
0.2533028
0.3993131
0.643761
0.8345788
0.8713631
0.7308126
0.4652928
0.06267332
-0.4447238
-0.9407485
-1.249446
-1.210577
-0.9645786
-0.8256897
-0.8816805
-1.021798
-1.137621
-1.153976
-1.13026
-1.087807
-0.6992427
0.1404463
0.9295866
1.27664
1.253821
1.036314
0.760595
0.5641819
0.5355974
0.6399104
0.6845517
0.6252253
0.4932645
0.1606746
-0.183304
-0.3036084
-0.3145054
-0.1988787
0.0268262
0.1440129
0.03802101
-0.3462959
-0.8684586
-1.168517
-1.070288
-0.6608024
-0.07930957
0.512618
0.9145456
1.06391
0.9839373
0.6701699
0.1838606
-0.2791908
-0.4792526
-0.4816113
-0.4532865
-0.312987
-0.07672074
0.1120156
0.1366134
-0.1129179
-0.5301232
-0.7932498
-0.6817507
-0.2647406
0.2842494
0.7700288
0.9978324
1.004917
0.8552302
0.5739252
0.3063207
0.07226206
-0.1603032
-0.2559522
-0.08049759
0.3251237
0.6975169
0.69433
0.2455872
-0.3595735
-0.8085065
-1.056175
-1.117495
-0.8490544
-0.3000576
0.2142285
0.5044594
0.578066
0.4590636
0.1557751
-0.3175438
-0.8905355
-1.272805
-1.225803
-0.7991248
-0.1242683
0.5597599
1.017083
1.131999
0.9208797
0.6638061
0.4955691
0.2953565
0.08328768
-0.1033816
-0.1819853
-0.09546746
-0.06932102
-0.201253
-0.3786295
-0.5119457
-0.5074089
-0.3902614
-0.2503225
-0.1024217
0.09634086
0.334659
0.4596491
0.3689211
0.1010476
-0.2559082
-0.5678402
-0.6708357
-0.5327163
-0.3116345
-0.08883611
0.1218586
0.1919239
0.1748192
0.2813346
0.5431917
0.7251422
0.4654094
0.0644085
0.01747594
-0.00447208
-0.02945372
0.2313743
0.4420486
0.4984214
0.623373
0.7153304
0.5885037
0.2313407
-0.1883811
-0.4695162
-0.6075167
-0.6940941
-0.6939765
-0.669464
-0.8156313
-0.9593346
-0.8230876
-0.5781313
-0.4309439
-0.322949
-0.02185939
0.5257297
0.8687319
0.8104443
0.6708003
0.534595
0.3532182
0.2465722
0.2559629
0.3225597
0.3068486
0.1854743
0.1170882
0.05526734
-0.02849171
-0.03476881
0.02724527
0.1516038
0.2589324
0.3180008
0.3744715
0.2766804
-0.007723528
-0.2821306
-0.4841533
-0.6350607
-0.7323118
-0.8348418
-0.9132186
-0.7539654
-0.3555787
-0.03121203
0.0564232
-0.04225173
-0.2333823
-0.3551962
-0.3725166
-0.4458359
-0.555585
-0.4061177
0.1082772
0.6354141
0.8725363
0.9966172
1.016739
0.8800252
1.017288
0.9863647
0.2914397
0.1022209
0.5209255
0.112231
-0.6498899
-0.6976604
-0.703287
-0.7886694
-0.5535792
-0.3249986
-0.04270295
0.2352197
0.2789087
0.33805
0.4596696
0.4522618
0.3080543
0.163108
0.08082336
0.03808365
0.01026132
-0.003210088
0.01334059
-0.03869662
-0.2206052
-0.4070603
-0.5009676
-0.4851372
-0.4135311
-0.2997665
-0.05795185
0.1597293
0.2080541
0.3063281
0.458363
0.4432817
0.3020193
0.1071562
0.004755399
-0.1008783
-0.6092687
-1.168101
-1.270238
-0.9240237
-0.2170201
0.3263071
0.3802755
0.3980539
0.5149137
0.407513
-0.1238237
-0.9432459
-1.522023
-1.675495
-1.638543
-1.401452
-0.7430707
0.5079541
2.004355
3.0653
3.497918
3.515797
3.337283
3.06129
2.520557
1.56997
0.4661157
-0.4697671
-1.251952
-2.064248
-2.892652
-3.532007
-3.82269
-3.692797
-3.174011
-2.310534
-1.230868
-0.2368312
0.5536513
1.101101
1.28849
1.258466
1.251535
1.31746
1.408724
1.437629
1.303493
1.047332
0.7960917
0.529375
0.2073576
-0.15822
-0.4632509
-0.5215608
-0.4776388
-0.4777959
-0.3878513
-0.2400846
-0.1724145
-0.1862726
-0.1212598
0.0169156
0.1874879
0.3341764
0.1629204
0.2081611
0.9809858
1.429756
0.7438719
-0.3783269
-1.006714
-1.044057
-0.9506323
-0.9610881
-0.9412372
-0.9359501
-1.124287
-1.227153
-0.9682096
-0.487915
0.1357519
0.7731018
1.151527
1.272666
1.307396
1.204809
0.885916
0.5531714
0.39972
0.3916241
0.3424381
0.1385078
-0.1107526
-0.3403291
-0.5004895
-0.539057
-0.5475611
-0.498438
-0.3747492
-0.2779912
-0.1840136
-0.01549337
0.1921326
0.2712861
0.189281
0.1121139
0.1485982
0.2315266
0.2016815
0.00736625
-0.2137982
-0.242599
-0.06370826
0.08097155
0.05699829
-0.01149276
-0.04967044
-0.1371663
-0.2575158
-0.3149521
-0.270303
-0.139427
-0.06030233
-0.1642611
-0.3139111
-0.2947079
-0.1094727
0.1192581
0.2765982
0.3040553
0.2955269
0.3737416
0.4321537
0.3656136
0.3419923
0.4156715
0.4216933
0.3281349
0.1745713
0.03497324
-0.05745141
-0.3197893
-0.7172626
-0.94346
-0.9714263
-0.7833494
-0.3687345
0.06746306
0.3836114
0.5316855
0.5082904
0.4148073
0.3884243
0.4607339
0.5797237
0.6780561
0.670824
0.5594386
0.3991629
0.1696223
-0.09979723
-0.3249203
-0.5777742
-0.8455105
-1.085956
-1.335442
-1.303683
-1.043819
-0.9761935
-0.93856
-0.6197137
-0.02448424
0.5970972
0.9893923
1.090831
0.9747626
0.8478307
0.7670131
0.670202
0.558253
0.4694911
0.4005753
0.2064872
-0.07913474
-0.2713661
-0.2877505
-0.1560484
-0.03515219
-0.03167846
-0.1687032
-0.3537619
-0.4112827
-0.4031866
-0.4474731
-0.4727017
-0.4038247
-0.2292573
-0.01486109
0.2016069
0.494627
0.8156798
0.953936
0.7288797
0.2119448
-0.233639
-0.3384228
-0.2040326
-0.1144105
-0.1013578
-0.05844538
-0.07196912
-0.01929188
0.2411202
0.3880698
0.3241105
0.301559
0.04118613
-0.6118906
-1.285721
-1.537991
-0.6454617
0.08807406
-0.731028
-0.6523835
0.7863776
0.9243057
0.2141736
0.3777375
0.8543143
0.60664
0.04538566
-0.01943381
0.09802029
-0.1199937
-0.386873
-0.329635
-0.1273462
-0.0513596
-0.004087717
0.09024516
0.09902497
0.03076292
0.05075145
0.1660458
0.2716861
0.3290136
0.2802114
0.07133384
-0.1899268
-0.1959881
0.0989627
0.3075922
0.1825185
-0.1308189
-0.2901491
-0.3327719
-0.5471078
-0.7031539
-0.5726125
-0.3336638
-0.0400595
0.3393824
0.6800846
0.8550782
0.8818707
0.7432348
0.4284338
0.1979627
0.1563878
0.07787838
-0.08204442
-0.2166076
-0.2901024
-0.3201835
-0.303368
-0.17395
-0.01693596
0.002160296
-0.1161115
-0.2608742
-0.3133787
-0.2724263
-0.2077722
-0.1454053
-0.09341043
-0.06984023
-0.1201252
-0.160684
-0.1243052
-0.1394836
-0.2119216
-0.2542584
-0.2477793
-0.202616
-0.1411516
-0.04046997
0.02769328
0.001897279
-0.03734728
-0.05667054
-0.006849138
0.07477015
0.05309742
-0.02955417
-0.0409354
0.1082825
0.3591505
0.5302747
0.5267488
0.4325412
0.4187055
0.5173307
0.6174342
0.6605097
0.6726725
0.6441194
0.5790308
0.4618687
0.2665357
0.1455769
0.05934026
-0.1765661
-0.4092979
-0.543488
-0.6875958
-0.9097069
-1.264772
-1.590381
-1.605781
-1.295279
-0.8797943
-0.5415993
-0.2366899
0.1154703
0.507369
0.8657894
0.9941886
0.8661786
0.7597811
0.8329344
0.8683811
0.6735764
0.3922272
0.2111682
0.123861
0.03473522
-0.004989725
0.02418637
-0.04925588
-0.2222271
-0.3754558
-0.5061601
-0.5964717
-0.6008607
-0.4786573
-0.2887309
-0.2011794
-0.1993859
-0.1788976
-0.1127885
0.06019352
0.313902
0.5386445
0.6206456
0.455777
0.1173032
-0.1848578
-0.3589033
-0.3812034
-0.1997687
0.1147773
0.3504959
0.366107
0.3248198
0.4505571
0.618363
0.5818803
0.3558211
0.1278332
-0.05030837
-0.2499569
-0.4933351
-0.702886
-0.7079406
-0.532822
-0.3491795
-0.2059409
-0.1620781
-0.1923802
-0.2145646
-0.173187
0.01683421
0.2534138
0.3752477
0.3573167
0.2890405
0.1955113
-0.06175915
-0.316238
-0.3178714
-0.2838421
-0.340348
-0.2446357
0.05040572
0.3764589
0.6607674
0.7726617
0.6287761
0.4350473
0.3842328
0.3947232
0.2885068
0.1525159
0.1353723
0.04266755
-0.2408722
-0.4652436
-0.4837615
-0.3638645
-0.2739644
-0.3754109
-0.4188241
-0.2134167
-0.0386577
-0.06712873
-0.2175388
-0.3116496
-0.2763334
-0.1908283
-0.08398344
0.03346159
0.1234562
0.1518217
0.1003367
-0.03088109
-0.1551613
-0.1766226
-0.1788217
-0.2174713
-0.1479382
0.03603996
0.2211281
0.4620531
0.6437376
0.5695429
0.3972725
0.3028146
0.3058984
0.3933716
0.3454323
0.04706542
-0.2166076
-0.2809049
-0.2319098
-0.1531791
-0.1260677
-0.282461
-0.5062539
-0.3748328
-0.01539909
0.1010902
6.681909e-05
-0.1316904
-0.25199
-0.360153
-0.4447669
-0.4828705
-0.4525342
-0.2495976
0.1416501
0.4957375
0.6177875
0.5582371
0.5198025
0.4844244
0.3690581
0.3146439
0.2394457
0.07385737
-0.02213058
-0.08626605
-0.1387375
-0.08867917
0.05196368
0.1737301
0.1674213
0.05429079
-0.04680926
-0.04202242
-0.003703939
-0.06385779
-0.1672767
-0.1900548
-0.1744141
-0.2101164
-0.2024094
-0.04390983
0.1009671
0.03558548
-0.111953
-0.2876259
-0.5536226
-0.768208
-0.7662632
-0.5403522
-0.3759024
-0.2099421
-0.3139552
-0.4817527
0.4289924
0.7374023
-0.07151768
0.4944846
1.546202
1.49774
1.019236
0.6677463
0.5562167
0.3929545
0.3067667
0.5267126
0.6188803
0.4100148
-0.008146048
-0.3878775
-0.3957406
-0.1892133
-0.3050537
-0.7933156
-0.8770815
-0.5418911
-0.5574947
-0.8582347
-1.094291
-1.148061
-1.089494
-1.0265
-0.7660348
-0.4368548
-0.3221414
-0.1992584
0.1595202
0.4483106
0.427101
0.3942698
0.5500375
0.8071951
1.003708
0.9728577
0.7575502
0.6290592
0.794432
0.9725866
0.8083277
0.444024
0.1558625
0.03419932
-0.05748741
-0.1613872
-0.2184505
-0.3852344
-0.4781269
-0.2262513
-0.1014835
-0.3653543
-0.3833157
-0.07142696
-0.09905215
-0.2655255
-0.03655302
0.07492787
-0.2230888
-0.2639159
-0.1630563
-0.3715936
-0.4394057
-0.3617628
-0.4707679
-0.5044678
-0.432416
-0.356453
-0.07551609
0.3255318
0.5349928
0.4881031
0.3358487
0.2455236
0.2660583
0.3536938
0.433045
0.4036401
0.2508491
0.06914736
-0.0829407
-0.1876614
-0.1439335
0.03840825
0.1795816
0.249697
0.2523747
0.1818239
0.1964545
0.3434557
0.4666323
0.5032694
0.4317587
0.2516395
0.1005801
-0.03639353
-0.2404488
-0.4601253
-0.6827421
-0.8862539
-1.028844
-1.11173
-1.157
-1.126594
-0.8595973
-0.4070135
-0.07321467
0.07978534
0.1663201
0.2914741
0.462168
0.5451131
0.6763198
0.9226425
0.9647381
0.774318
0.5564482
0.3426476
0.2084863
0.1178962
-0.01622425
-0.0135503
0.1089364
0.1728687
0.1611739
0.1036438
0.08763503
0.07710844
-0.05979594
-0.2955599
-0.4668517
-0.4776373
-0.4129625
-0.3672783
-0.3060409
-0.1757506
-0.07048933
-0.0749386
-0.09719117
-0.1112588
-0.1788335
-0.2254345
-0.1603898
-0.03284463
0.07880048
0.1763583
0.2823361
0.3462934
0.2958655
0.1333127
-0.01194002
-0.09304471
-0.301718
-0.6277836
-0.7345669
-0.5008751
-0.1921011
-0.03522186
0.003877081
0.02732089
0.08860577
0.157944
0.2153285
0.3167922
0.4620917
0.6629533
0.8779849
0.9365555
0.8797091
0.8977157
0.9921514
1.043533
0.9243242
0.5973337
0.2345465
-0.03362413
-0.2931774
-0.5847782
-0.813355
-1.058854
-1.435651
-1.711101
-1.760237
-1.548049
-1.396181
-1.637683
-1.346568
-0.5946088
-0.4014075
-0.1672741
0.3929555
0.7517376
0.830117
0.7305101
0.8888766
1.231831
1.184916
1.020959
1.18996
1.492232
1.615195
1.519672
1.322779
1.003318
0.4968651
-0.07110683
-0.4908988
-0.7207502
-0.9117982
-1.046579
-1.017632
-0.9442703
-1.003165
-1.116031
-1.018331
-0.7936172
-0.703566
-0.6277189
-0.4223571
-0.1604182
0.06755228
0.08783795
-0.1621631
-0.4177507
-0.4514432
-0.3148492
-0.1633317
-0.07636463
0.05623178
0.3223825
0.5579889
0.6375607
0.6971793
0.8449377
0.9495887
0.9632287
1.033204
1.051926
0.8016397
0.5562047
0.5295942
0.4864712
0.3676231
0.1202525
-0.3074696
-0.6426015
-0.7236369
-0.6755117
-0.7194672
-0.8540336
-0.8923277
-0.8853246
-0.9251104
-0.9503841
-0.9166024
-0.765123
-0.4462002
-0.03740933
0.2713359
0.3229819
0.2603531
0.3449953
0.4864354
0.556216
0.6595106
0.7842845
0.875133
0.9342897
0.9338495
0.9797032
1.112666
1.149426
1.044551
0.8396723
0.4570625
-0.06358005
-0.5457488
-0.906606
-1.175151
-1.41549
-1.643171
-1.713784
-1.554697
-1.307442
-1.053494
-0.8185556
-0.5642108
-0.2884956
-0.09702824
-0.05394923
-0.2722253
-0.4920512
-0.4077436
-0.3746981
-0.4803643
-0.342651
0.1366294
0.9097563
1.862129
2.722721
3.263834
3.336788
2.917781
2.286309
1.736249
1.185009
0.4429196
-0.5505049
-1.744964
-2.930619
-3.881326
-4.363628
-4.139685
-3.256741
-1.994196
-0.6171415
0.647584
1.737943
2.723993
3.56606
4.15584
4.336464
3.999435
3.127609
1.696951
-0.09899658
-2.01007
-3.847054
-5.349514
-6.253566
-6.233944
-5.188817
-3.220585
-0.5865855
2.057605
4.184858
5.531461
5.782677
5.031833
3.843299
2.511395
1.133206
-0.08444589
-1.128789
-2.118922
-3.09631
-3.921378
-4.302595
-4.172881
-3.686278
-2.83078
-1.62522
-0.2789832
1.115253
2.345988
3.047021
3.193083
2.981304
2.532912
2.015255
1.492783
0.8227826
0.08449133
-0.4685297
-0.7176778
-0.6448911
-0.4029789
-0.2687103
-0.3288603
-0.4300523
-0.4494211
-0.4321381
-0.4435551
-0.435439
-0.3453944
-0.1378599
0.146793
0.3290985
0.3968194
0.526364
0.6646789
0.6481525
0.602203
0.6716772
0.6952894
0.5714529
0.3685071
0.07979124
-0.2734206
-0.5987597
-0.8255117
-0.997453
-1.180643
-1.272211
-1.138441
-0.7904103
-0.4709095
-0.3877063
-0.4433977
-0.5110629
-0.5533727
-0.4223885
0.06038676
0.7497338
1.272368
1.405337
1.162298
0.6655208
0.1036168
-0.2134759
-0.2932063
-0.3604133
-0.2816138
-0.04908334
0.1848945
0.3447668
0.1834544
-0.2312916
-0.6225263
-0.9083252
-0.7977745
-0.2468236
0.2520592
0.5312098
0.6913639
0.7380329
0.7504408
0.690558
0.5429872
0.54475
0.6889387
0.5549492
0.03755752
-0.508862
-0.8821752
-0.9990592
-0.8379056
-0.5929882
-0.3794386
-0.1147485
0.2480145
0.5268776
0.4798158
0.1716754
-0.07026137
-0.01496807
0.1677449
0.1781495
0.05551219
-0.08543561
-0.2532895
-0.4077823
-0.5733113
-0.7288648
-0.6794572
-0.3977264
0.01397782
0.4125913
0.5368462
0.4347689
0.3464564
0.1993875
-0.05393871
-0.2505701
-0.3667831
-0.3991022
-0.2221874
0.1517896
0.5219361
0.5632157
0.2425399
0.04903657
0.0927128
0.1385895
0.3275027
0.5601805
0.6617402
0.7926499
0.7118894
0.2900569
-0.118141
-0.5134463
-0.7852298
-0.5540117
-0.2087153
-0.2660374
-0.410165
-0.2616183
0.01202919
0.06930397
-0.1086154
-0.3058379
-0.4890409
-0.6370802
-0.5751514
-0.2977959
0.01301982
0.2648117
0.5045055
0.6247919
0.4217828
0.06499696
-0.2413979
-0.596294
-0.8704551
-0.7735233
-0.4419357
-0.0318264
0.5807023
1.102344
1.049684
0.4853059
-0.06009383
-0.1293363
0.09294818
0.1816311
0.1726798
0.3613643
0.6338128
0.6081545
0.3664923
0.1230594
-0.1714157
-0.4533453
-0.5795882
-0.6118984
-0.4987391
-0.1311649
0.1826556
0.3081882
0.3628937
0.2145361
-0.005466411
-0.1557481
-0.433261
-0.7003689
-0.7530178
-0.6378429
-0.3031561
0.08390778
0.2344378
0.3380633
0.3876444
0.1132316
-0.1009983
0.01393359
0.1130314
-0.007225144
-0.1829951
-0.1360789
0.0285707
0.1238694
0.2684883
0.310775
0.2313899
0.2858762
0.23475
0.01958706
-0.06397397
-0.01540039
0.1305082
0.2770999
0.277622
0.2037419
0.15585
0.1739672
0.1453574
-0.03335144
-0.1788662
-0.340668
-0.6357739
-0.8733289
-0.9755372
-0.8837416
-0.5857229
-0.166536
0.268734
0.5225113
0.5962877
0.6321616
0.5857373
0.3715712
0.2301629
0.31993
0.4085661
0.4236293
0.3164634
0.06483261
-0.3092104
-0.6327717
-0.3424557
0.08186331
0.119922
0.3068204
0.150295
-0.4731521
-0.478344
-0.2127946
-0.4250773
-0.6295631
-0.5610712
-0.3238435
-0.03500346
-0.2413319
-0.6242685
-0.410973
-0.1262678
0.04575941
0.6029507
1.10476
1.21554
1.27878
1.353791
1.144862
0.6056176
0.1067777
-0.2437128
-0.5438014
-0.7143658
-0.7158079
-0.6246067
-0.610692
-0.5332151
-0.1952542
0.01447937
-0.1243786
-0.3000793
-0.3433889
-0.3197533
-0.3095801
-0.2767864
-0.1919
-0.2727383
-0.4348474
-0.2537387
0.02513653
0.01407948
-0.03831963
0.1659853
0.6175163
0.9969053
1.157645
1.152034
0.7566535
0.198583
0.1304381
0.178069
-0.1052767
-0.4249201
-0.5913008
-0.4656486
-0.1504118
-0.02328641
-0.8689783
-0.9860618
0.3130808
-0.6654203
-1.473396
0.9472161
2.218806
1.504831
1.26462
1.501443
1.391237
0.6995525
0.0007197271
-0.634605
-1.350065
-1.874026
-2.239721
-2.516335
-2.5227
-2.259522
-1.949147
-1.625384
-1.119395
-0.2560015
0.8133172
1.763373
2.497107
2.894653
2.935373
2.667841
2.073159
1.420725
0.9283684
0.4498309
-0.1066358
-0.5849321
-0.8585371
-0.9341609
-0.7859854
-0.5268204
-0.451568
-0.563731
-0.7235271
-0.8724966
-0.7872995
-0.4610084
-0.07824782
0.2571745
0.4615699
0.5897806
0.6398176
0.574268
0.3877655
0.1207056
-0.08857793
-0.2022646
-0.2304371
-0.2171115
-0.22898
-0.2397214
-0.2286799
-0.3053969
-0.5094395
-0.6014016
-0.5603927
-0.6125864
-0.6798944
-0.7112536
-0.7919784
-0.7190775
-0.4064002
-0.01078178
0.4661106
0.7862791
0.7124596
0.5543107
0.6777736
0.9978732
1.09936
1.086135
1.068141
0.7862723
0.5989308
0.4360645
0.1800451
0.2189366
0.1132488
-0.2620967
-0.6449569
-0.9804807
-0.9691201
-0.7193569
-0.4838141
-0.2989656
-0.2562891
-0.2787915
-0.1758775
0.02491697
0.08278028
-0.1041396
-0.2916494
-0.3729649
-0.4316512
-0.3496565
-0.2248013
-0.2084006
-0.1481864
-0.03915831
0.06834143
0.164169
0.2309944
0.3879267
0.6386222
0.8317236
0.8170258
0.684144
0.69956
0.7505453
0.6161276
0.3373138
0.0109982
-0.255189
-0.3926316
-0.4260182
-0.4620293
-0.6009721
-0.8361441
-1.15183
-1.482252
-1.622284
-1.435553
-0.8968097
-0.1395741
0.5004397
0.8335679
0.9737862
1.062139
1.176613
1.354827
1.37907
1.195279
1.0848
1.056531
0.8981078
0.5285608
0.142756
-0.1103098
-0.3456562
-0.5431452
-0.6480179
-0.7229443
-0.8104015
-0.9163133
-0.9276977
-0.8329439
-0.7122191
-0.5623805
-0.4522418
-0.4286534
-0.530084
-0.7053233
-0.7632653
-0.6595436
-0.3246865
0.1405046
0.3989786
0.4943379
0.5557483
0.6049455
0.6997362
0.770879
0.8111727
0.7212974
0.4435147
0.1867101
0.06076429
0.1215607
0.226894
0.1543875
0.05042288
0.01876208
-0.01193903
0.005452151
0.01282374
-0.123211
-0.2949214
-0.5493256
-0.9381968
-0.976095
-0.5328491
-0.06265175
0.2517665
0.4049213
0.3158213
0.1191529
0.06707732
0.1590739
0.323824
0.4635341
0.4693002
0.3836059
0.2122025
0.0665983
0.05334788
-0.04739874
-0.2229846
-0.1111815
0.2412829
0.3500378
0.1327311
-0.01503402
-0.07067776
-0.2138901
-0.3015397
-0.31356
-0.3792786
-0.3791441
-0.2493136
-0.1212438
0.04157007
0.2094839
0.2562006
0.2504948
0.1654619
-0.04131503
-0.2652228
-0.4361185
-0.5015442
-0.4809579
-0.383324
-0.2861899
-0.4018852
-0.4803523
-0.1782279
0.2400108
0.5049713
0.5533661
0.4603508
0.4557052
0.4555303
0.3299032
0.2509493
0.2762225
0.1278323
-0.1916347
-0.2100254
-0.003811171
0.02373482
-0.01470554
0.1158116
0.3358622
0.3525232
0.1683499
0.04833892
0.02484788
-0.004284288
-0.09149186
-0.1963342
-0.2189269
-0.2523114
-0.3612691
-0.2945059
-0.05528959
0.01732231
-0.1491388
-0.3323983
-0.3189827
-0.178709
-0.1459669
-0.2555769
-0.3743873
-0.3889139
-0.2326593
0.101596
0.5047609
0.7957529
0.8529593
0.6951246
0.4616508
0.3728929
0.5714357
0.9441822
1.181198
1.016914
0.5499771
0.0420873
-0.4722347
-1.049767
-1.636658
-1.915721
-1.908123
-1.977546
-1.742638
-1.05535
-0.496359
-0.1635708
0.1599052
0.5385754
0.6508388
0.4589421
0.6753645
1.344128
1.814921
1.707034
1.117438
0.5421039
0.06343791
-0.5020294
-0.915864
-0.9312225
-0.5331583
0.1124523
0.6630918
0.8496447
0.7701378
0.7818722
1.014658
1.219542
1.109302
0.71572
0.3325936
0.09748133
-0.1171411
-0.476939
-0.9567214
-1.329111
-1.556775
-1.67261
-1.583695
-1.485534
-1.525745
-1.28931
-0.6870448
-0.4016727
-0.5504447
-0.6760003
-0.8009344
-0.8451762
-0.485627
0.2429508
0.9129649
1.107689
1.153668
1.378785
1.491535
1.39415
1.191567
1.127797
1.346724
1.546544
1.526269
1.329112
1.149564
1.077971
0.9047745
0.6412192
0.4644952
0.2649093
-0.2018639
-0.8845152
-1.465695
-1.784914
-1.871665
-1.919056
-2.121563
-2.333723
-2.317725
-2.010239
-1.534291
-1.147414
-0.8785467
-0.5194956
-0.05673873
0.353218
0.6365319
0.8631639
1.139469
1.394994
1.445306
1.28085
1.143788
1.135002
1.101476
1.024791
0.9497024
0.8063522
0.5964692
0.4692911
0.3968525
0.1737252
-0.1193893
-0.2490462
-0.180651
-0.08975627
0.1259418
0.2326422
-0.4027719
-0.8207465
-0.7957212
-1.350567
-1.450227
-0.8158242
-0.4699078
-0.1642806
0.2442914
0.4432928
0.3667982
0.1914816
0.05494654
-0.03095588
0.01564676
0.1171498
0.2171178
0.2650312
0.1480646
-0.04085447
-0.2470729
-0.431547
-0.4937751
-0.5452121
-0.6590763
-0.7085422
-0.6535774
-0.5525206
-0.3410612
0.09440965
0.5635467
0.8813916
1.102514
1.144927
1.035835
0.9346048
0.8293384
0.6679826
0.3655607
-0.06152199
-0.3706235
-0.4482065
-0.4226008
-0.3811695
-0.3380292
-0.2888879
-0.2607265
-0.3357117
-0.4420628
-0.3515718
-0.03817774
0.2642411
0.4413998
0.48862
0.3371532
0.1167567
0.03145072
0.00959656
-0.06874584
-0.2032137
-0.3287286
-0.3891999
-0.4460988
-0.5026999
-0.4838406
-0.3663284
-0.06661825
0.3389043
0.5386572
0.472204
0.3207572
0.2045604
0.1175711
-0.04751214
-0.3031908
-0.5233641
-0.5247526
-0.3302271
-0.1463914
-0.01969834
-0.0193658
-0.08762477
-0.1314407
-0.2356918
-0.1011888
0.4002172
0.851858
1.064569
0.96369
0.5515934
0.1238121
-0.09773368
-0.08659939
0.01371585
0.09741346
0.1749489
0.1370219
-0.0005098637
-0.06494114
-0.07070624
-0.158562
-0.2244944
-0.157706
-0.2028288
-0.4197307
-0.6688139
-0.8912246
-0.9508893
-0.7328444
-0.2470633
0.1889786
0.269293
0.2430949
0.4124902
0.6816046
0.8992167
0.9809345
0.8698537
0.6830993
0.5370319
0.3770365
0.1532798
-0.1527627
-0.5181161
-0.7963375
-0.9295575
-1.052349
-1.248067
-1.345123
-1.155643
-0.8177699
-0.5201917
-0.2554164
0.0108609
0.2315333
0.3369736
0.4061809
0.592899
0.8301796
1.022354
1.211364
1.206395
0.9042601
0.6143506
0.4929452
0.4602809
0.495663
0.5524909
0.4616576
0.1136189
-0.3331603
-0.6190705
-0.6911848
-0.6713718
-0.6507999
-0.7188029
-0.9014835
-1.025933
-0.9687305
-0.7626676
-0.5511492
-0.4742705
-0.4318818
-0.2875363
-0.02225507
0.4011312
0.9353166
1.347933
1.536438
1.620521
1.58303
1.410431
1.169502
0.7767268
0.2917084
-0.1003607
-0.4137241
-0.6779608
-0.8528138
-0.9664016
-0.9809493
-0.8236978
-0.5672319
-0.2696852
-0.0417194
-0.001378541
-0.2851748
-1.151027
-2.371549
-3.536373
-4.470517
-4.712984
-3.915529
-2.273653
-0.1317554
2.075615
3.879635
5.117546
5.740679
5.681004
5.025296
3.894356
2.565754
1.468629
0.7262855
0.2523257
0.04044919
-0.007645459
-0.06299316
-0.1547093
-0.2750386
-0.5449623
-1.031923
-1.684121
-2.467496
-3.200637
-3.699212
-3.948306
-3.914687
-3.583133
-2.942955
-2.082437
-1.157886
-0.1440904
0.9175593
1.871229
2.697445
3.34585
3.68094
3.623297
3.191511
2.522011
1.679617
0.8053467
0.1710138
-0.3303808
-0.9023629
-1.491383
-2.028952
-2.344927
-2.303194
-1.893793
-1.052039
0.03857133
0.9445456
1.4189
1.499417
1.278694
0.8257462
0.367504
0.03069911
-0.2969482
-0.5986546
-0.7912835
-0.8960012
-0.8562337
-0.6448392
-0.3959757
-0.1457084
0.0626044
0.1455352
0.1431306
0.01662924
-0.1945079
-0.2428366
-0.0575097
0.1778201
0.3744688
0.5114774
0.5014481
0.3863678
0.2192796
0.08592988
0.08747178
0.1576249
0.3312359
0.5775909
0.7340928
0.8039894
0.7796084
0.6567225
0.501709
0.2495732
-0.181973
-0.6236711
-0.8565438
-0.9179665
-0.9129688
-0.9028673
-0.9370081
-0.9378874
-0.8655266
-0.7880127
-0.7026588
-0.5325156
-0.1389868
0.4012516
0.7987695
1.031172
1.2601
1.476303
1.413721
1.002324
0.5246786
0.17481
0.03493208
0.06221951
0.125672
0.2007614
0.3007766
0.2844589
0.05914402
-0.2553723
-0.7101182
-1.257006
-1.608856
-1.683569
-1.464409
-1.02391
-0.5786272
-0.2264383
0.02156687
0.1545796
0.2271098
0.3201425
0.4579645
0.6561182
0.8657833
1.009167
1.038217
0.9429126
0.7973403
0.5736949
0.2207984
-0.2450229
-0.7479302
-1.079545
-1.178683
-1.126412
-0.9292246
-0.6528491
-0.3819477
-0.02440635
0.3930376
0.6304481
0.625734
0.4594383
0.2771142
0.1881742
0.1558102
0.1471483
0.086419
-0.03284036
-0.1393511
-0.1572505
0.05173446
0.4290524
0.7538037
0.8856097
0.8163221
0.6253333
0.3961555
0.2123882
0.09795227
-0.0303029
-0.2571076
-0.4565938
-0.4779467
-0.4329683
-0.4089842
-0.4066475
-0.5633112
-0.8980408
-1.124645
-1.001556
-0.6273358
-0.2181233
0.1704835
0.4674937
0.5111433
0.2882141
-0.02678294
-0.2189178
-0.1429041
0.1882398
0.5462412
0.6913288
0.6201539
0.5455309
0.5941565
0.6107673
0.4887553
0.3540877
0.4493655
0.7797154
0.9103503
0.634904
0.2003549
-0.1743769
-0.4422704
-0.7084434
-1.076587
-1.469271
-1.688702
-1.605106
-1.295752
-0.8997403
-0.4954608
-0.09605953
0.3213573
0.6482668
0.770907
0.6588216
0.4406638
0.4150574
0.4946086
0.4107474
0.3111736
0.3614911
0.4530693
0.4808441
0.3762271
0.1252312
-0.1099724
-0.2667034
-0.3805475
-0.3673982
-0.2785852
-0.2585475
-0.2869526
-0.2271457
-0.002426086
0.2431269
0.3264141
0.1832382
-0.13967
-0.3523328
-0.2727481
-0.1050917
-0.002256894
0.04144938
0.05591564
0.05969086
-0.0005880738
-0.07791599
-0.08298494
-0.07898834
-0.07759685
-0.06220473
-0.08708653
-0.03443983
0.1329432
0.2224402
0.223692
0.2520514
0.3126304
0.3450497
0.3079787
0.2032354
0.07885995
0.03124101
0.08605694
0.1891418
0.2856102
0.3025256
0.2676449
0.2675831
0.2363656
0.1183779
0.0478287
0.06360754
0.05457934
0.04963692
-0.04513644
-0.4022568
-0.7471638
-0.834073
-0.9037977
-1.086142
-1.161154
-1.00112
-0.7077775
-0.4542238
-0.2595505
0.02650252
0.3138045
0.4161682
0.4005105
0.2916258
0.1097277
0.0004589207
0.09648905
0.3660736
0.5625467
0.6479162
0.7169908
0.6710598
0.4769366
0.3167152
0.3428743
0.4000967
0.3266901
0.2550547
0.2694084
0.2483698
0.1545426
0.06886408
0.01647278
0.02151174
0.05434095
0.09324863
0.1899377
0.1803402
-0.09445953
-0.4899441
-0.8070754
-0.9290724
-0.8947162
-0.8941466
-0.9627574
-0.9843661
-0.9066971
-0.7072175
-0.461877
-0.1737453
0.2587228
0.6157879
0.7102603
0.7307553
0.7371672
0.6255938
0.4601448
0.2560492
0.08944498
0.2738453
0.6510849
0.7351689
0.5208575
0.2013055
0.01183198
0.242607
0.6912271
0.9508274
0.924695
0.5197412
-0.2366214
-0.9224572
-1.348044
-1.630416
-1.566826
-1.231973
-1.122182
-1.130492
-0.8408024
-0.387041
-0.2550803
-0.5983691
-0.9887533
-0.8868539
-0.2625175
0.6271326
1.683177
2.657507
3.313922
3.744092
3.976528
3.853015
3.319532
2.394192
0.9053088
-1.032123
-2.950523
-4.589773
-5.741714
-6.302236
-6.258552
-5.516317
-4.229603
-2.584769
-0.5739995
1.52302
3.206218
4.286271
4.817956
4.819432
4.368103
3.684815
2.877656
1.972983
1.101027
0.2869593
-0.452973
-1.06454
-1.661154
-2.209141
-2.483121
-2.487797
-2.362273
-2.061034
-1.511971
-0.7891792
-0.02468357
0.6546202
1.161228
1.428732
1.50967
1.475656
1.243755
0.8931135
0.6045141
0.3334957
-0.01088267
-0.3779916
-0.6804557
-0.9708711
-1.213112
-1.248868
-1.122631
-0.8442454
-0.4294485
-0.0706352
0.1993646
0.4349988
0.5762312
0.5536406
0.4297149
0.3302437
0.302417
0.357525
0.380616
0.2232282
-0.04852394
-0.2633745
-0.2848026
-0.1610506
-0.05818789
0.04180377
0.1608423
0.1275177
-0.09973095
-0.3144459
-0.3542486
-0.2358218
-0.09518753
0.0081465
0.07730161
0.04816617
0.05521145
0.2078821
0.3309582
0.4188495
0.5183038
0.4881874
0.316209
0.1184711
-0.007198932
-0.03290647
-0.01461308
-2.878381e-06
-0.02835203
-0.082307
-0.09889875
-0.09214136
-0.1497298
-0.3287168
-0.5163411
-0.5359553
-0.431997
-0.3316163
-0.2612041
-0.2660637
-0.2968843
-0.2534892
-0.1713424
-0.100849
0.04201096
0.3801292
0.7218212
0.7491842
0.5069846
0.227746
0.01069052
-0.1417859
-0.1885089
-0.09556062
0.08886821
0.3335647
0.6555159
0.9534067
0.9539124
0.5396358
-0.04758973
-0.4568653
-0.4931086
-0.2810388
-0.1566542
-0.2831711
-0.5600962
-0.7933477
-0.8638187
-0.8373354
-0.7902335
-0.6827376
-0.5691672
-0.5124746
-0.3863305
-0.1508685
0.1590868
0.5777755
0.8948972
0.9495533
0.8798437
0.7374634
0.6153817
0.583304
0.5725951
0.5833041
0.5983557
0.6999368
0.8750257
0.7916738
0.3417445
-0.2011087
-0.6418723
-0.9549254
-1.07994
-1.083172
-1.038237
-0.8980995
-0.900044
-1.055683
-1.02118
-0.7575625
-0.4153951
-0.1208322
0.1387046
0.1311795
0.007990288
-0.1117324
-0.5875655
0.1068358
2.281055
3.172589
2.613384
2.735974
3.182419
2.166939
-0.08853344
-1.998107
-2.874048
-3.02395
-2.838593
-2.454741
-1.935011
-1.39443
-0.8586925
-0.2271332
0.4128075
0.8868673
1.210793
1.403178
1.287802
0.8779466
0.6931387
0.7657712
0.4451581
-0.09827145
-0.1350514
0.1237144
0.077103
-0.1514055
-0.2096749
-0.09295624
0.1119866
0.2957509
0.3295449
0.212388
0.07423063
0.08825936
0.1577316
0.0137375
-0.3164216
-0.6393327
-0.8894168
-1.016648
-0.8860859
-0.5885374
-0.3674865
-0.09387968
0.3038149
0.4730951
0.3754885
0.3071466
0.3430602
0.4123372
0.4585238
0.5317518
0.6018388
0.4970279
0.2907757
0.109729
-0.1037685
-0.3129607
-0.3863265
-0.3380693
-0.2816045
-0.2404035
-0.1557601
-0.03040669
0.0140809
0.02346407
0.1259504
0.1909809
0.215649
0.1925654
-0.03587505
-0.2821842
-0.3460024
-0.2080414
0.0003304495
-0.1362214
-0.8725297
-1.791418
-2.022068
-1.351788
-0.3209329
0.5710583
1.111995
1.537271
1.809833
1.523862
0.8820509
0.2937253
-0.02510022
0.01078696
0.155627
0.2185391
0.2274115
0.1581675
0.07830751
0.2261833
0.4641072
0.4029514
0.1627515
0.01529815
-0.05963952
-0.173479
-0.3877274
-0.6111822
-0.7086132
-0.6987168
-0.7282389
-0.7908036
-0.7418853
-0.6445877
-0.5597502
-0.3432845
-0.05994683
0.1143214
0.2247052
0.2865291
0.2596202
0.1843669
0.1070432
0.04852963
0.04078794
0.120959
0.2214121
0.2761778
0.290751
0.3084573
0.3993458
0.4910362
0.4985493
0.3980935
0.1886754
0.05211122
0.1354592
0.2435273
0.1558648
-0.02509694
-0.1789361
-0.232079
-0.133564
-0.03029815
0.001682387
-0.06700788
-0.2657115
-0.4338626
-0.4317009
-0.2542155
0.0004688441
0.2082035
0.3005823
0.246236
0.1091315
-0.03815836
-0.1762929
-0.3054804
-0.3882593
-0.3613053
-0.3078978
-0.2289607
-0.05273754
0.07344343
0.08271063
0.04360452
0.005821102
0.02456815
0.08422811
0.164192
0.2654104
0.3662131
0.4076416
0.3681719
0.2863836
0.1240418
-0.08112819
-0.1682056
-0.120764
-0.1420431
-0.3701658
-0.6249645
-0.7539533
-0.8586152
-0.9816412
-1.01768
-0.8460599
-0.4217645
0.1301557
0.5855864
0.841626
0.9342011
0.9710166
1.00464
0.9365163
0.8274595
0.7963522
0.7144897
0.5833874
0.5375725
0.4034097
0.1089982
-0.06672274
-0.1581356
-0.2970176
-0.3502056
-0.3650478
-0.3795892
-0.3220204
-0.29915
-0.3552894
-0.4101432
-0.4062252
-0.3293833
-0.2617486
-0.2477121
-0.25008
-0.1926592
-0.009230578
0.1474059
0.1098716
-0.08879539
-0.3557298
-0.5673347
-0.6747021
-0.6736676
-0.5700219
-0.4227059
-0.2622156
-0.1410424
-0.09613059
-0.1483684
-0.1130693
0.2219567
0.6091316
0.7766589
0.7793721
0.8363339
0.8903286
0.7910761
0.7160003
0.7092174
0.6842433
0.5735404
0.4488271
0.3847421
0.3081852
0.289347
0.2501845
0.09603734
-0.1297148
-0.3946699
-0.5483439
-0.5720539
-0.6537519
-0.8777747
-1.131372
-1.304575
-1.294139
-1.052132
-0.6890263
-0.2707603
0.1034894
0.2485757
0.111476
-0.1095226
-0.1396361
0.1156814
0.5904526
0.9633796
0.9515589
0.7046946
0.4088871
0.1245131
-0.07970791
-0.1715944
-0.2299537
-0.3562853
-0.3627505
-0.127297
0.0632009
0.08087425
0.05848992
0.09639532
0.2402437
0.4441384
0.6511139
0.651392
0.3916553
0.3156721
0.5501475
0.6957515
0.5405048
0.2716589
0.06092623
-0.1563294
-0.390114
-0.6192739
-0.8362682
-0.856743
-0.6146274
-0.3529811
-0.2361792
-0.1399666
0.1037384
0.325034
0.2170545
-0.1062733
-0.4045981
-0.660401
-0.8260847
-0.7615696
-0.448094
-0.1649834
-0.06782962
0.01803699
0.122256
0.1539812
0.150504
0.2369299
0.4450562
0.6522414
0.7073031
0.5844135
0.4234177
0.294312
0.2086608
0.1634493
0.08798397
-0.0442977
-0.189734
-0.2576669
-0.2733618
-0.189839
0.05659563
0.2267487
0.3062586
0.3834354
0.2989838
0.1224704
-0.04932993
-0.2400541
-0.3454844
-0.3799261
-0.3919186
-0.4051455
-0.5100268
-0.620953
-0.639076
-0.4802885
-0.0686055
0.3062168
0.3519323
0.1838102
-0.0008773565
-0.1516311
-0.2461656
-0.2143614
-0.06240856
0.1092327
0.2560331
0.3729668
0.5358726
0.8015169
0.9710827
0.9403126
0.907712
1.005744
1.133049
1.103075
0.9569129
0.8380998
0.6143584
0.2943344
0.0605123
-0.1725753
-0.4779574
-0.8559178
-1.358264
-1.839343
-2.00273
-1.863871
-1.75372
-1.831675
-2.041475
-2.272331
-2.392123
-2.332504
-2.089093
-1.662954
-0.9324073
0.2419304
1.645154
2.838979
3.547372
3.723088
3.494906
3.064836
2.546536
1.894433
1.133033
0.5068499
0.1117728
-0.2360044
-0.5968553
-0.813277
-0.8375322
-0.8117687
-0.7804112
-0.6419417
-0.3226784
0.1391103
0.5491171
0.7864828
0.9193128
0.8977567
0.6089586
0.200249
-0.108579
-0.3535812
-0.6946525
-1.092314
-1.401144
-1.571156
-1.509361
-1.154666
-0.5391526
0.2152529
0.791085
1.025306
0.9631982
0.6534126
0.2367788
-0.2420856
-0.7987126
-1.337964
-1.831884
-2.236084
-2.393024
-2.213923
-1.686369
-0.9201369
-0.1513344
0.5364219
1.080081
1.360715
1.468031
1.51879
1.555042
1.576402
1.496801
1.324386
1.148533
1.01833
0.9171691
0.7998125
0.7006472
0.6660827
0.6520269
0.5365414
0.2248359
-0.2814416
-0.8525355
-1.268895
-1.406879
-1.197692
-0.7694986
-0.4908783
-0.3847542
-0.1981157
0.07137979
0.2520241
0.2648718
0.1551658
-0.02901793
-0.1936947
-0.2731448
-0.2927001
-0.1874206
-0.01509857
0.05980687
-0.001220039
-0.1904906
-0.3510509
-0.355306
-0.2624003
-0.09804001
0.1981954
0.6699393
1.086238
1.176837
0.926963
0.4584762
0.1027439
-0.08055785
-0.4348553
-0.8943462
-1.021979
-0.6886407
-0.1156772
0.3670219
0.4859822
0.4109477
0.3601535
0.14531
-0.1800858
-0.3967479
-0.6418561
-1.014112
-1.294019
-1.313193
-1.12975
-0.8307911
-0.4785303
-0.1051781
0.336352
0.7564537
0.9642147
1.023751
1.02081
0.8933108
0.6713217
0.4543431
0.3181895
0.2249313
0.1189653
0.05775899
0.08099312
0.1703906
0.2721116
0.3054586
0.2171888
0.03485398
-0.1648386
-0.316352
-0.2788077
0.02831658
0.3491747
0.2897095
-0.1697128
-0.5935523
-0.7072701
-0.5908275
-0.3101319
0.1117476
0.4441923
0.3988329
0.1887726
0.001376363
-0.3223488
-0.6542637
-0.9076933
-1.001796
-0.7374189
-0.357061
-0.1022843
0.1275043
0.2810094
0.2837854
0.3593346
0.4753484
0.4069234
0.3766294
0.4949782
0.5417722
0.49752
0.4065771
0.26733
0.1864081
0.216829
0.1656074
-0.0578475
-0.1664229
0.02707039
0.381668
0.6227371
0.5360797
0.2186792
-0.2055788
-0.7013261
-1.018669
-1.006531
-0.8037472
-0.5773057
-0.376404
-0.1688293
0.006138065
0.03109135
-0.126122
-0.2868272
-0.3504934
-0.3603764
-0.1782844
0.2958696
0.9290177
1.378962
1.320018
0.8160608
0.1572792
-0.4529029
-0.9326553
-1.098768
-0.8689409
-0.4433968
0.0351307
0.3761846
0.3754719
0.1497718
0.004579185
0.03764222
0.1049242
0.1348161
0.1533587
0.22935
0.3712307
0.4757923
0.5082468
0.4077348
0.1461333
-0.1270525
-0.3363013
-0.505236
-0.5233013
-0.2848667
0.01417036
0.2048007
0.3617332
0.4609876
0.4502264
0.2748624
-0.1063592
-0.4896612
-0.7479983
-0.8512796
-0.7338721
-0.5506359
-0.4015805
-0.2090952
0.0384944
0.281629
0.3973531
0.3261816
0.1724954
0.1074819
0.1631691
0.2169896
0.2211942
0.2572373
0.3648852
0.4188466
0.3314388
0.1440584
-0.07956629
-0.2359147
-0.3158109
-0.4016698
-0.463647
-0.413834
-0.2925155
-0.181497
-0.08421133
-0.04106236
-0.04612168
-0.06033406
-0.0819963
-0.05050674
0.02556818
0.1391924
0.2939717
0.399292
0.4287986
0.3668427
0.244722
0.240328
0.3528281
0.354047
0.2220439
0.1192801
0.09586632
0.05652128
-0.001641614
0.04097642
0.03465433
-0.09875237
-0.1563405
-0.1469111
-0.1113706
-0.08542591
-0.1543505
-0.1473034
-0.05362648
-0.1536285
-0.4661686
-0.8200324
-1.066123
-1.048464
-0.7953131
-0.463197
-0.09534292
0.2544942
0.4694675
0.5580075
0.5923777
0.5960709
0.6175373
0.7184657
0.8127145
0.7056825
0.4473859
0.2175594
0.1003492
0.08299415
0.01901629
-0.1033204
-0.2152883
-0.2310368
-0.1059795
-0.04495638
-0.08114719
-0.08189125
-0.1245163
-0.2407581
-0.3111012
-0.320319
-0.3737247
-0.5143576
-0.6358441
-0.6327252
-0.4948157
-0.2427681
0.08748811
0.3949516
0.4771228
0.3850862
0.3540522
0.3084769
0.2847177
0.4612237
0.6438007
0.5821386
0.3060188
0.1281708
-0.02865522
-0.6128169
-1.117263
-1.012609
-0.82416
-0.829147
-0.9128551
-0.9483103
-0.4200707
0.8355438
2.04572
2.416966
1.950344
1.304231
0.8152637
0.2009944
-0.5007015
-1.004007
-1.308691
-1.497363
-1.530225
-1.320139
-0.8912454
-0.2599908
0.4357704
0.9713382
1.323612
1.449347
1.21972
0.5681196
-0.2896647
-0.9427624
-1.222709
-1.160957
-0.9270395
-0.6750969
-0.3663586
-0.04469855
0.1989492
0.3709475
0.4836232
0.5668431
0.7040029
0.9737915
1.367739
1.638868
1.502849
1.137153
0.8221923
0.5155327
0.03692653
-0.5990064
-0.9539799
-0.8948218
-0.877907
-1.065455
-1.264521
-1.431317
-1.638736
-1.757786
-1.583451
-1.261036
-0.942475
-0.521928
0.02999311
0.6965224
1.332263
1.644293
1.580031
1.259356
0.8509553
0.5212236
0.3315617
0.3151678
0.4572463
0.6907463
0.8566567
0.8442968
0.6357661
0.2389295
-0.1658715
-0.4481665
-0.6994635
-1.022893
-1.277761
-1.333934
-1.354362
-1.322343
-1.013743
-0.4879638
0.01013667
0.37835
0.6029273
0.7544543
0.9422793
1.039345
0.8590387
0.5002112
0.2739865
0.2152936
0.1016672
0.02403915
0.1199997
0.2274108
0.2532007
0.2759768
0.2297204
0.04477171
-0.08952366
-0.09402484
-0.07091228
-0.06654817
-0.1064388
-0.1874122
-0.3133173
-0.4626264
-0.5447704
-0.5611546
-0.6228491
-0.771125
-0.8881456
-0.8393179
-0.6143517
-0.3328185
-0.1499678
0.01144103
0.2996015
0.6530754
1.051917
1.388149
1.414116
1.180589
0.8486394
0.4781599
0.1213201
-0.2446692
-0.5123607
-0.5252246
-0.3808874
-0.2528611
-0.186928
-0.1391956
-0.09110719
0.05393302
0.2845826
0.3720977
0.3004171
0.1521344
-0.06848769
-0.2788424
-0.3656377
-0.3628857
-0.4248548
-0.5927494
-0.7598571
-0.7519483
-0.572926
-0.3570128
-0.14963
-0.08178398
-0.1679216
-0.1608499
0.05901057
0.2994653
0.3471999
0.2751646
0.2304684
0.2213656
0.2227869
0.2693616
0.397059
0.547004
0.7041357
0.8477632
0.7981076
0.5741177
0.4492719
0.4449541
0.3540868
0.2349422
0.2515693
0.1551178
-0.2864173
-0.8103978
-1.10746
-1.087616
-0.8199316
-0.5472064
-0.4420348
-0.4385827
-0.4635868
-0.4445664
-0.2533532
0.0382124
0.220975
0.1887308
0.01621452
-0.05372036
0.06794713
0.2532103
0.4215744
0.473492
0.3581894
0.1811901
0.02055304
-0.1258689
-0.2300886
-0.2363941
-0.2293447
-0.2575365
-0.1916385
-0.0007151483
0.1915707
0.2667423
0.2129476
0.1258689
0.09199209
0.1022096
0.1597903
0.2644107
0.3384565
0.3779243
0.4511458
0.510507
0.3930675
0.1240651
-0.1212757
-0.3009769
-0.3961762
-0.4091682
-0.3792704
-0.3360417
-0.3484515
-0.3565693
-0.2560626
-0.119723
-0.06567646
-0.0495389
0.03374952
0.09602112
0.009286428
-0.1599291
-0.2270419
-0.07862867
0.1633957
0.26231
0.2855165
0.4962567
0.7801939
0.7667934
0.4464395
0.1390411
-0.1073079
-0.3523934
-0.4459063
-0.3669317
-0.1679985
0.005778585
-0.07493215
-0.2963398
-0.4579963
-0.5027282
-0.381991
-0.2136338
-0.1115626
-0.04731056
-0.07466905
-0.1940673
-0.2118769
-0.03916904
0.1417996
0.1796849
0.1558603
0.1813787
0.2558396
0.3611153
0.4438083
0.428696
0.3703521
0.3195958
0.2000472
0.02016931
-0.1374782
-0.2950843
-0.3060055
0.01232621
0.3996627
0.5210671
0.3101078
-0.07511331
-0.3479225
-0.4245201
-0.3882418
-0.3110328
-0.3367302
-0.4238295
-0.405826
-0.389647
-0.4528131
-0.4722396
-0.3545238
-0.05905629
0.3053068
0.5491136
0.622266
0.5668225
0.4947575
0.4018373
0.2521014
0.2105736
0.2325951
0.242132
0.2507078
0.09221912
-0.09098741
-0.09678858
-0.1072036
-0.153438
-0.1377539
-0.1948442
-0.3851557
-0.5230836
-0.375068
0.007829535
0.2953423
0.4279053
0.432759
0.2686546
0.1131431
0.02597316
-0.07367969
-0.1799124
-0.2276898
-0.180493
-0.1540522
-0.172905
-0.1089814
-0.01487108
-0.05372382
-0.2003791
-0.2822896
-0.2648266
-0.2174386
-0.1033379
0.04374556
0.1252835
0.1363277
0.04496948
-0.1354807
-0.220585
-0.1184713
-0.02557962
-0.07583215
-0.1903801
-0.2440616
-0.1106026
0.1172489
0.2781233
0.4553603
0.6569203
0.7692406
0.8336565
0.8466914
0.7407188
0.5780364
0.390839
0.1952433
0.05977499
-0.06801827
-0.2088964
-0.2663372
-0.3467113
-0.6126237
-0.903087
-0.9788208
-0.8627373
-0.6883897
-0.5223778
-0.4100602
-0.3845875
-0.38713
-0.3151194
-0.159955
0.1261415
0.5194818
0.7388803
0.6409406
0.3461687
0.05093631
-0.08523313
-0.06760107
-0.04291302
-0.1215063
-0.1502013
0.03877275
0.322959
0.5381961
0.5955274
0.4850894
0.3389815
0.2646021
0.2564238
0.2607077
0.1843673
0.0365702
-0.1086364
-0.2593367
-0.3168954
-0.3657282
-0.517975
-0.6374964
-0.9223564
-1.001697
-0.2312905
0.7527063
1.243289
1.22482
0.645338
-0.2363681
-0.4676538
0.1635128
0.6502602
0.4796529
-0.1450558
-0.9447653
-1.581345
-1.815372
-1.570521
-0.9982094
-0.4479831
-0.1279839
0.1298634
0.5348727
0.9540511
1.232542
1.414816
1.425051
1.148247
0.8984685
0.9999039
1.098387
0.8513424
0.494982
0.199818
-0.1001908
-0.3522324
-0.5408047
-0.7709731
-1.008203
-1.176751
-1.305834
-1.389901
-1.365081
-1.159504
-0.8222842
-0.473592
-0.133294
0.1217445
0.2405032
0.07421827
0.08841223
0.7110693
0.9913655
1.16575
0.7981344
-0.1894307
0.5503246
0.9271581
-0.21395
-0.6329328
-0.9153726
-0.561346
0.6605104
1.590903
2.293984
2.391058
1.779589
1.091166
0.5693967
-0.01616546
-0.7640826
-1.381207
-1.707627
-1.900085
-2.092865
-2.228247
-2.246063
-2.060898
-1.633187
-1.125645
-0.7294582
-0.4443326
-0.03660658
0.4956613
0.8608193
1.057908
1.18661
1.211549
1.379794
1.748707
1.865416
1.792461
1.765881
1.472205
0.8952032
0.2621493
-0.2763744
-0.6518846
-0.9235117
-0.6889046
-0.210238
-0.4370439
-1.044416
-1.343776
-1.176154
-0.5478415
0.1903585
0.7139374
0.8702274
0.685008
0.3620871
-0.02958063
-0.4526779
-0.7837484
-0.9660605
-1.031435
-1.01425
-0.9006947
-0.6199269
-0.1503312
0.352416
0.6513113
0.6598346
0.4796371
0.2768564
0.1946572
0.2497412
0.3699568
0.473877
0.4859117
0.395543
0.2080007
0.02667598
0.01923703
0.1126918
0.1525348
0.183335
0.2543308
0.2535152
0.09868606
-0.07625657
-0.09199595
0.01036088
0.03212978
-0.1079955
-0.2568696
-0.292284
-0.3372189
-0.4912961
-0.6497962
-0.7018402
-0.6651545
-0.5152282
-0.2253474
-0.0675501
-0.0807187
0.0688448
0.2076203
0.08621602
0.004526318
0.1478477
0.3985347
0.6599675
0.8321332
0.8313657
0.6634648
0.4407273
0.3038565
0.299518
0.3695343
0.2625704
-0.1602192
-0.6503318
-0.9282027
-0.9657282
-0.9755992
-0.9849731
-0.8562773
-0.7438278
-0.7094595
-0.552058
-0.2247747
0.1677705
0.583609
0.9744484
1.228344
1.3222
1.279739
1.185879
1.087048
0.9975441
0.9068355
0.6173341
0.2980091
0.1150852
-0.197256
-0.6125109
-0.9069499
-0.976291
-0.9258303
-0.8399203
-0.663893
-0.607694
-0.7993234
-1.012184
-1.081287
-1.022472
-0.8790284
-0.7083454
-0.5547988
-0.386616
-0.1923444
0.009006281
0.207765
0.3989504
0.6318289
0.9190044
1.173098
1.320247
1.39304
1.423072
1.323584
1.062525
0.7609499
0.5323222
0.360535
0.1686771
-0.05963337
-0.2561252
-0.3634804
-0.436617
-0.4783669
-0.4741878
-0.5261751
-0.6209077
-0.7721336
-1.00391
-1.082346
-0.9609971
-0.8342311
-0.747242
-0.6838939
-0.5959008
-0.4687071
-0.3471337
-0.1044697
0.2572689
0.5757931
0.896923
1.084134
0.9434888
0.6423188
0.3428296
0.1422354
0.08457195
0.07550757
0.1489722
0.3551597
0.5718259
0.7423598
0.8426416
0.9458644
1.180454
1.28515
1.05529
0.7324529
0.5009728
0.3457827
0.231422
0.09629447
-0.1149493
-0.4607493
-0.991969
-1.620929
-2.20672
-2.540263
-2.510925
-2.307229
-2.035339
-1.671635
-1.224802
-0.7937747
-0.5297653
-0.4321879
-0.4612049
-0.492051
-0.3632708
-0.07743912
0.4127697
1.081592
1.700107
2.20695
2.718841
3.159214
3.246041
2.905279
2.357363
1.615847
0.589043
-0.475408
-1.287797
-1.64174
-1.598074
-1.494435
-1.27809
-0.905924
-0.5939032
-0.1863108
0.4704224
1.187243
1.747896
2.00392
1.908858
1.534695
0.990222
0.2866934
-0.5759658
-1.435181
-2.207099
-2.994005
-3.68368
-3.94531
-3.658529
-2.836814
-1.506439
0.1299509
1.774645
3.050336
3.576964
3.317035
2.658526
1.980953
1.273798
0.4935483
-0.2995742
-1.122967
-1.964583
-2.689477
-3.018476
-2.912857
-2.382217
-1.533641
-0.6498438
0.2831067
0.9562063
1.442281
1.956578
2.050342
2.159963
2.639788
2.802841
2.383729
1.744056
1.035281
0.1353733
-0.8151498
-1.635807
-2.236973
-2.486113
-2.481715
-2.392788
-2.133276
-1.62675
-0.961513
-0.1728202
0.7271237
1.605831
2.094826
2.234819
2.450102
2.350399
1.784348
1.308217
0.8363417
0.2672338
-0.1175145
-0.2600409
-0.3383714
-0.4075588
-0.3309618
-0.2688424
-0.3419435
-0.4747342
-0.7177832
-0.9909015
-1.249324
-1.536815
-1.863612
-2.203967
-2.345087
-2.028773
-1.200851
-0.1703452
0.8096862
1.602665
1.858308
1.532764
0.9922166
0.4973058
0.1342998
0.05369835
0.2483433
0.460108
0.5990165
0.685883
0.6675721
0.478745
0.28144
0.241892
0.211324
0.168728
0.1849194
0.1792962
0.07243048
-0.07639125
-0.1605688
-0.2766509
-0.3270777
-0.09020475
0.1420433
0.08741371
-0.10794
-0.2852703
-0.4298522
-0.5785524
-0.6863222
-0.6990847
-0.6463926
-0.5452716
-0.4722195
-0.4838047
-0.4591572
-0.2807209
0.1138197
0.6652026
1.078428
1.221961
1.276913
1.284129
1.061906
0.5630186
-0.03801945
-0.6463411
-1.229228
-1.527174
-1.509795
-1.442868
-1.280677
-0.9293034
-0.4207043
0.1425087
0.4941089
0.5859966
0.6697605
0.8056013
0.8483256
0.8819341
0.9463713
0.8883724
0.7554491
0.5192959
0.1456147
-0.1342847
-0.3447918
-0.3088866
0.1557012
0.5724686
0.6699637
0.450406
0.5291069
0.7635073
-0.03617141
-0.7782182
-0.5478662
-0.5027251
-0.5021902
-0.00603614
0.2871572
0.08700173
-0.1955857
-0.5435196
-1.027226
-1.379153
-1.484717
-1.325
-0.9479867
-0.5626251
-0.1745797
0.2254908
0.4486703
0.4597476
0.3144365
0.06747275
-0.02729149
0.2123514
0.630368
0.9348215
1.054034
1.099493
1.022501
0.8379886
0.6493292
0.3805506
0.08884174
-0.04162128
0.009673804
0.1388866
0.1671969
0.01281209
-0.2293345
-0.5090688
-0.779252
-0.8915457
-0.9006824
-1.060593
-1.389007
-1.615774
-1.445096
-0.8158647
0.02002327
0.6723615
0.9881073
1.113582
1.049706
0.8849209
0.8702545
0.8320926
0.6079195
0.3687873
0.1828949
0.09426022
0.1258401
0.1717499
0.1165084
-0.01678122
-0.01437371
0.05188659
-0.03931836
-0.2184407
-0.4106674
-0.5462967
-0.6076288
-0.5931085
-0.4246449
-0.3009307
-0.3366222
-0.3034058
-0.1418527
0.02465733
0.0691598
-0.0380803
-0.1263211
-0.06203729
0.1104275
0.3143939
0.4895161
0.6035359
0.6641335
0.6292493
0.4689662
0.2530604
0.08894369
0.0163315
-0.02256189
-0.07787112
-0.1731689
-0.281213
-0.3401546
-0.3792856
-0.4027371
-0.3377004
-0.2174173
-0.1370852
-0.07270639
0.04227827
0.1372139
0.1555818
0.1420033
0.1468362
0.295666
0.5137599
0.4719018
0.1725107
-0.1122716
-0.2764522
-0.3919387
-0.5445677
-0.6248413
-0.6244243
-0.6667863
-0.5862704
-0.3816993
-0.180484
0.1199652
0.3886256
0.489852
0.4975467
0.4328355
0.4541971
0.6463633
0.8269158
0.9326738
0.9668934
0.8501435
0.5936968
0.244401
-0.04460107
-0.1146194
-0.1466163
-0.3324637
-0.6336793
-0.926921
-1.072239
-1.124824
-1.216185
-1.277386
-1.207755
-1.012894
-0.746703
-0.4605277
-0.1405652
0.1625996
0.3827529
0.6334189
0.8897626
0.9649676
0.9368076
1.004545
1.145247
1.257479
1.305165
1.214687
0.9424983
0.7180721
0.8062384
0.9129732
0.6373254
-0.068763
-1.069544
-1.960563
-2.587166
-2.866799
-2.593186
-2.14569
-1.633121
-0.739912
0.2720576
0.9739429
1.189189
1.111979
1.101399
1.016588
0.661554
0.2794889
0.09251383
0.1872145
0.4584326
0.6733897
0.838598
0.9883486
1.097257
1.140289
1.063093
0.9794496
0.8471426
0.3197737
-0.5930717
-1.458317
-2.063987
-2.507247
-2.689158
-2.404272
-1.76948
-1.0196
-0.3251278
0.2603984
0.7709278
1.162824
1.417092
1.334283
0.8904176
0.6217687
0.52424
0.2507817
0.1392024
0.2967567
0.2426991
0.007624963
0.037671
0.3942891
0.6666368
0.4460398
0.1152565
0.09863542
-0.03387421
-0.3133899
-0.1802829
0.2846694
0.55511
0.5512082
0.5216874
0.5060239
0.3528796
0.01560116
-0.3170706
-0.4952444
-0.612133
-0.8106878
-1.070724
-1.171679
-1.098257
-1.07512
-1.071494
-1.015389
-0.9602205
-0.8571334
-0.6435677
-0.2627148
0.1707958
0.4765168
0.7187397
0.8609824
0.8830153
0.9171333
0.8858148
0.8380625
0.8370113
0.667107
0.3988234
0.2193201
0.1730074
0.3225563
0.4823467
0.4457742
0.3163167
0.2134361
0.1216322
0.107704
0.2368016
0.3219332
0.2303735
0.07720574
-0.04474797
-0.2015717
-0.4990083
-0.8627177
-1.129134
-1.254884
-1.188852
-0.9989348
-0.8763891
-0.7153472
-0.389369
0.02246317
0.3915721
0.5563142
0.5748835
0.5443333
0.458111
0.4432377
0.4444504
0.3057342
0.1562439
0.07824232
0.1089986
0.2514845
0.1815792
-0.1366684
-0.2897452
-0.2100684
-0.08433404
0.05057737
0.1171651
0.01149935
-0.1420754
-0.1124843
0.07826618
0.2690344
0.4063526
0.4155928
0.2675938
0.04783183
-0.1232244
-0.05179131
0.2934923
0.5433869
0.3143993
-0.2161124
-0.594142
-0.694133
-0.592668
-0.3986792
-0.2425039
-0.09187874
0.1088922
0.2076429
0.1354293
-0.01660255
-0.1626892
-0.1648559
-0.08160632
-0.06914695
-0.0566065
-0.0325011
-0.09186241
-0.2272708
-0.3639481
-0.340021
-0.05112803
0.3121679
0.5110721
0.5214441
0.4243712
0.3244571
0.2725673
0.2075559
0.1017759
0.08790835
0.204264
0.249483
0.1881827
0.1026767
-0.07215359
-0.2947168
-0.4383659
-0.4388302
-0.2658004
-0.04702438
0.105286
0.2600303
0.3717608
0.2793419
-0.008120178
-0.1542505
0.01856427
0.06026858
-0.1644902
-0.2282239
-0.1618182
-0.2710405
-0.4453876
-0.4104462
-0.2902206
-0.4031927
-0.6139223
-0.5875695
-0.3417372
-0.02779109
0.2451907
0.4070413
0.571844
0.7644298
0.7557248
0.4707187
0.1078877
-0.08925608
-0.07540488
-0.06066721
-0.1168043
-0.0677484
0.08303788
0.1430058
0.102023
0.02488091
-0.08406058
-0.08605875
0.07038387
0.182103
0.160182
0.04934958
-0.1653921
-0.3154602
-0.1599553
0.1556258
0.417284
0.6487896
0.7872176
0.7365279
0.5693141
0.3687599
0.08881736
-0.1968229
-0.3196447
-0.4504296
-0.7486536
-1.11099
-1.424845
-1.554349
-1.413274
-1.011702
-0.5917082
-0.3627586
-0.07073409
0.3973407
0.8082783
1.057112
1.092974
0.9559339
0.8416375
0.8055742
0.7137988
0.5190764
0.301821
0.01440033
-0.3035184
-0.4671936
-0.5556566
-0.6571157
-0.6300167
-0.4385074
-0.2158875
0.02748146
0.3077884
0.4552143
0.4754986
0.523259
0.52663
0.4774355
0.4615048
0.3780054
0.2251528
0.06861764
-0.1105206
-0.2305534
-0.2464804
-0.1416355
0.004339483
-0.05150387
-0.2440609
-0.3320551
-0.309458
-0.2965998
-0.3958318
-0.5412604
-0.6619892
-0.7837256
-0.8267084
-0.7013652
-0.3553548
0.05586989
0.2833219
0.4243612
0.5348759
0.5045753
0.3951219
0.2676065
0.1795888
0.1678375
0.1131269
0.08479663
0.1968886
0.2811796
0.396242
0.6008955
0.5543101
0.3497404
0.2978624
0.1855925
0.001281039
-0.05280139
-0.155837
-0.4077546
-0.6553629
-0.7706636
-0.7116318
-0.513402
-0.2032682
0.05261741
0.1276568
0.2067292
0.2362253
0.1091795
0.1340722
0.3576048
0.4948972
0.3990961
0.1226135
-0.1362381
-0.2583678
-0.2702634
-0.3091441
-0.4292107
-0.4856785
-0.3900188
-0.2159779
-0.1524608
-0.2355896
-0.2656522
-0.1713323
-0.0329662
0.1036803
0.2073239
0.3003851
0.442378
0.5740242
0.6402069
0.6691243
0.6122851
0.4943472
0.4171014
0.2877718
0.04536111
-0.1270899
-0.1340762
-0.1005941
-0.1319333
-0.173131
-0.1694761
-0.1416695
-0.05185593
0.03205482
-0.0004377146
-0.09627328
-0.2007346
-0.2367611
-0.2129188
-0.2887173
-0.3915389
-0.3803285
-0.3789049
-0.3802093
-0.2394338
-0.1195045
-0.208767
-0.433921
-0.636014
-0.653311
-0.4942395
-0.3087175
-0.1724994
-0.1245411
-0.08080315
0.1472635
0.5003276
0.7375587
0.832488
0.8919712
0.9489788
0.9789966
0.9218712
0.8191399
0.7935267
0.8216243
0.798492
0.6969548
0.4788471
0.1377898
-0.1984503
-0.4409004
-0.6156426
-0.7905688
-1.003829
-1.215425
-1.366098
-1.416098
-1.388552
-1.269576
-0.9618514
-0.5509548
-0.1865949
0.1819837
0.6021642
0.9627156
1.119904
1.076278
0.9735772
0.820064
0.547079
0.348421
0.396668
0.5716634
0.7317669
0.7290164
0.5205322
0.278273
0.02184572
-0.3676229
-0.8249328
-1.1067
-1.176633
-1.236832
-1.255823
-1.130566
-0.8943517
-0.56929
-0.1768639
0.2688063
0.5767518
0.5624341
0.3438924
0.115577
0.04893919
0.1464799
0.2616538
0.3250471
0.2837426
0.1885344
0.1886394
0.3086346
0.5275102
0.7741197
0.8639554
0.8020031
0.6652909
0.4070326
0.07300046
-0.2585045
-0.4113524
-0.2641239
-0.0455674
0.02353517
-0.1250934
-0.3705029
-0.4942158
-0.4815077
-0.3349279
-0.3441571
-0.3575937
-0.09694995
-0.2300748
-0.6714152
-1.173491
-0.5998567
0.735704
-0.4057688
-1.255725
0.8347883
1.007604
-0.8292224
0.1388818
1.705835
0.03887761
-0.84591
0.9048211
1.216178
0.1096918
-0.05262125
0.3336657
0.2196381
-0.1260339
-0.1055384
0.06376165
0.1721658
0.2800145
0.3314924
0.2519222
0.06787486
-0.1093066
-0.2545025
-0.3517153
-0.4194517
-0.4816308
-0.458029
-0.3332232
-0.2171969
-0.1879867
-0.1934475
-0.170394
-0.1090067
-0.03999076
0.0133845
-0.00932663
-0.05063393
0.03697891
0.03436393
-0.1321851
-0.1727406
-0.06691971
0.08645765
0.2330095
0.3115247
0.3545541
0.3710388
0.4343289
0.6385291
0.7284522
0.4951805
0.2308187
0.1551646
0.125755
0.0957752
0.1514847
0.218901
0.1223592
-0.1066455
-0.27107
-0.4177747
-0.6789068
-0.8886421
-0.9215983
-0.9203652
-0.9139171
-0.7811421
-0.5103303
-0.1694764
0.1106919
0.2148085
0.2331028
0.2741059
0.3247524
0.3518354
0.2747209
0.182082
0.2837488
0.4971496
0.5806032
0.4635184
0.2584087
0.02407292
-0.2149439
-0.3052122
-0.1993233
-0.01121138
0.1701687
0.3157158
0.4078787
0.3767632
0.277391
0.2244942
0.1631921
0.09646271
0.09888574
0.1515001
0.2155805
0.2715364
0.2509301
0.09248508
-0.07274473
-0.1715488
-0.3745703
-0.6060352
-0.62474
-0.6000602
-0.7361659
-0.8667333
-0.84615
-0.7241563
-0.6052045
-0.5352946
-0.4014446
-0.1158529
0.1695914
0.3088019
0.4818813
0.8631784
1.097399
0.7735422
0.2203324
0.0005320613
0.1000896
0.2673627
0.3531686
0.3059677
0.2535228
0.2195172
0.06756666
-0.1780425
-0.3605996
-0.416472
-0.3790829
-0.2564718
-0.1122579
-0.01522116
0.03066132
-0.08073217
-0.2271148
-0.1453359
0.06173958
0.2537968
0.3618773
0.3469491
0.3053646
0.2157181
0.07112034
0.06250389
0.2300382
0.3920426
0.4683529
0.4791535
0.4143517
0.2488867
-0.0266165
-0.2631756
-0.3487924
-0.4246331
-0.4828545
-0.4072107
-0.2727244
-0.1985341
-0.2685784
-0.3519646
-0.317887
-0.3571434
-0.5320455
-0.5951732
-0.3657064
0.06871887
0.4367367
0.5493777
0.4682339
0.3303233
0.2879683
0.441412
0.6025668
0.6091214
0.5184686
0.3173206
0.03915124
-0.2102987
-0.4390841
-0.6159525
-0.7452369
-0.9262429
-1.100218
-1.142475
-1.103115
-0.9930408
-0.6572568
-0.179098
0.1923562
0.4268272
0.573958
0.6246026
0.6285957
0.711847
0.885708
1.023494
1.057008
1.041927
1.023903
0.904502
0.6177827
0.335153
0.2325994
0.2295372
0.1416591
-0.09682325
-0.4089041
-0.660921
-0.8049365
-0.9008173
-0.9962898
-1.056853
-1.011892
-0.8139048
-0.4680158
-0.1298307
0.03570255
0.1112493
0.2704802
0.4575889
0.4583276
0.3449766
0.2481286
0.163347
0.239621
0.304901
0.092179
-0.1576973
-0.2019082
-0.1440859
-0.03448209
0.1943091
0.1363305
-0.3633427
-0.6693455
-0.5856082
-0.4382165
-0.2444243
0.1140722
0.4721356
0.622556
0.5773406
0.4605217
0.3848951
0.3363312
0.2880992
0.2240447
0.1239419
0.165272
0.3415752
0.4056662
0.3279946
0.07799951
-0.2976285
-0.6274869
-0.8667825
-0.915617
-0.7943953
-0.6211314
-0.4332193
-0.2758633
-0.1143532
-0.02374754
0.01366966
0.1100657
0.01296829
-0.2571804
-0.2785346
-0.02151755
0.3155605
0.6599055
0.9123401
0.9702176
0.8590253
0.675712
0.481234
0.3663581
0.3960508
0.4289421
0.3034843
0.001075545
-0.367717
-0.5674911
-0.4976633
-0.2189092
0.1621538
0.2740276
0.01766579
-0.2104055
-0.3844012
-0.5400544
-0.6023121
-0.7689989
-1.007538
-1.065562
-0.8053692
-0.578117
-0.6400206
-0.4568267
-0.1438357
-0.2047956
-0.1886396
0.1280178
0.3874803
0.6272399
0.903874
1.046708
1.10438
1.051709
0.8288937
0.6201255
0.4442057
0.2240691
0.01430891
-0.2191836
-0.443111
-0.4471296
-0.3173661
-0.2874205
-0.2594748
-0.1424581
-0.001503891
0.1834634
0.3232976
0.185866
-0.1749313
-0.4932275
-0.6192408
-0.5047075
-0.232971
-0.02825419
-0.03323751
-0.1397593
-0.2878129
-0.4312052
-0.3155227
0.02856531
0.2858965
0.372707
0.4831338
0.6638615
0.7072747
0.6717505
0.6929741
0.7378917
0.9197243
1.268807
1.515531
1.405175
1.036263
0.5621781
-0.01178071
-0.5926816
-1.135078
-1.593976
-2.020736
-2.428315
-2.593551
-2.477131
-1.970646
-1.170322
-0.4838585
0.160131
0.7661632
0.9973272
0.7322488
0.09749223
-0.6588442
-1.3361
-1.788711
-1.93152
-1.656739
-0.7745759
0.5629146
2.080301
3.602638
4.57231
4.688626
4.314625
3.676201
2.800447
1.744853
0.5524668
-0.7295606
-2.028959
-3.186753
-4.010192
-4.3334
-4.090443
-3.295601
-1.998423
-0.353739
1.406396
2.985637
4.159262
4.818373
4.800684
3.952695
2.405771
0.5432894
-1.451894
-3.456562
-5.191121
-6.466724
-7.025845
-6.644458
-5.398776
-3.428953
-0.7879024
2.289371
5.06935
6.782818
7.216083
6.574107
5.23733
3.60167
1.94109
0.3191482
-1.271913
-2.720247
-3.940467
-4.873316
-5.315245
-5.067961
-4.289822
-3.306782
-2.191883
-0.906554
0.559751
2.10269
3.305617
3.856823
3.964945
3.77116
3.211625
2.459582
1.660695
0.8936635
0.2863008
-0.1413986
-0.3948717
-0.5025308
-0.5832133
-0.7028338
-0.7919151
-0.8795359
-1.068571
-1.258533
-1.301748
-1.125511
-0.723491
-0.22481
0.2495563
0.5944691
0.7513167
0.7822741
0.6971788
0.5140658
0.2874861
0.04585316
-0.1052521
-0.1170429
-0.1691354
-0.3784918
-0.5956151
-0.7838976
-0.9944602
-1.107596
-0.9895656
-0.5894751
-0.06621454
0.3927017
0.7149528
0.8031597
0.665229
0.4566282
0.394722
0.453143
0.4974994
0.5307176
0.462261
0.3023434
-0.04646838
-0.5398237
-0.6646865
-0.4583749
-0.2540328
-0.09643187
-0.05692734
-0.08790634
-0.1621323
-0.3101839
-0.5276665
-0.7815088
-0.9296904
-0.9555554
-0.8332289
-0.4565449
0.1245304
0.7735229
1.290718
1.457496
1.351831
1.279378
1.211298
0.977483
0.6455074
0.361282
0.2871349
0.2569497
-0.01359953
-0.3817298
-0.6751336
-0.8037106
-0.7607551
-0.7945697
-0.8927104
-0.8412384
-0.7535977
-0.6785506
-0.5126321
-0.4953404
-0.6556449
-0.5934477
-0.3120774
-0.07594068
-0.06452635
-0.2049932
-0.1158422
0.1412646
0.2976277
0.4148051
0.5068889
0.6207963
0.8396362
1.025504
0.95276
0.5960606
0.2277976
0.02620736
-0.003481372
0.1094263
0.3166754
0.6316813
0.8701856
0.8761495
0.7030534
0.2412421
-0.3921014
-0.8101212
-0.937465
-0.8381327
-0.6013327
-0.3811406
-0.2095358
-0.1657668
-0.3892139
-0.6671034
-0.7431512
-0.7098318
-0.4643623
0.02653025
0.4396242
0.7116385
0.8516486
0.706887
0.3631313
0.1161615
0.04782288
0.06074795
0.1019473
0.338964
0.683294
0.5781654
0.0985494
-0.2767533
-0.4671248
-0.5714604
-0.6116465
-0.5080264
-0.3374698
-0.1905276
-0.05590361
0.05897291
0.1537251
0.1884071
0.1206367
-0.01976914
-0.2024047
-0.5036392
-0.8439828
-0.9322262
-0.7178012
-0.4072076
-0.0706974
0.3839912
0.7794948
0.7765098
0.4940424
0.2830523
0.2036206
0.2078169
0.3744664
0.5549847
0.505242
0.4567851
0.4496373
0.2350599
-0.04833241
-0.3772117
-0.6757904
-0.6834264
-0.5891294
-0.5006129
-0.2812487
0.02146667
0.2497125
0.2779234
0.1940247
0.2423171
0.4613119
0.5620809
0.4288302
0.1883565
-0.09789807
-0.3615368
-0.5016328
-0.3515903
-0.1277625
-0.2649361
-0.5069769
-0.6226444
-0.7059376
-0.527255
-0.1789894
0.06721228
0.3796859
0.672736
0.656803
0.4590502
0.2580596
0.1528373
0.2617561
0.4313741
0.4992055
0.5369012
0.4856715
0.2635253
0.02834668
-0.1933496
-0.4086697
-0.4053339
-0.2366709
-0.2937692
-0.4689421
-0.3619519
-0.300561
-0.3805917
-0.3157275
-0.06338479
0.5226532
0.4235771
-0.6517038
-0.6820803
0.1063331
-0.01897671
-0.2611674
0.02349747
0.06266218
-0.03120722
0.07086368
0.09576481
0.1233313
0.3458071
0.5322875
0.5851135
0.4251769
0.08725467
0.05389993
0.2093456
0.1416268
0.05574815
0.01113767
-0.090401
-0.09045807
0.08416653
0.2962357
0.2823171
0.08749317
-0.04387674
-0.1489045
-0.2435376
-0.3358727
-0.4303287
-0.3972633
-0.3732303
-0.5705516
-0.6195164
-0.2817033
-0.09371288
0.03297898
0.4452316
0.6229392
0.4793386
0.3182473
0.1552999
0.07733795
0.02461057
-0.1605932
-0.3653213
-0.3328618
-0.1356122
-0.003797063
0.1923955
0.275458
-0.1151161
-0.4707394
-0.3547973
-0.08517818
0.06100877
0.1305792
0.07704264
-0.2685424
-0.4079306
-0.1642183
-0.1537946
-0.2077675
-0.04542283
0.112659
0.2020517
0.1921806
0.04811864
-0.3091233
-0.8568232
-1.148509
-0.6228542
0.5188801
1.596893
2.357887
2.728883
2.775982
2.687632
2.411954
1.849114
0.9743652
-0.1880913
-1.410288
-2.450067
-3.370983
-4.178684
-4.593205
-4.490283
-3.950223
-3.011569
-1.638661
0.03583722
1.60046
2.726665
3.236721
3.274139
3.199335
2.944672
2.469167
1.919145
1.314873
0.8702476
0.6536402
0.4714643
0.1276559
-0.4632674
-1.05662
-1.450797
-1.703967
-1.85393
-1.861768
-1.751132
-1.486192
-1.11459
-0.7332829
-0.2613404
-0.03455746
-0.01033393
0.4082547
0.7939369
0.7531188
0.7199551
0.6337765
0.3290723
0.1010206
-0.01042614
-0.06997909
0.0006856404
0.1824858
0.4887147
0.7184899
0.6119649
0.3796211
0.2076721
0.051282
-0.05757635
-0.09797519
-0.10299
-0.09636104
-0.1099229
-0.1241486
-0.07770263
-0.1127066
-0.3767583
-0.7210156
-0.8949181
-0.7449253
-0.3013768
0.3074957
0.704421
0.5703196
0.3112025
0.215893
0.1711677
0.272862
0.393544
0.3785542
0.3497652
0.3028072
0.2065193
0.07875483
-0.06923362
-0.2288836
-0.4341323
-0.5394886
-0.3610708
-0.003679139
0.283363
0.3868855
0.3377214
0.04027435
-0.3689956
-0.5379592
-0.5324244
-0.4356964
-0.2007246
0.006463001
0.1006524
0.1557724
0.1219725
0.01089599
-0.09950217
-0.3237132
-0.7187654
-1.221961
-1.47509
-1.088392
-0.2964191
0.5581676
1.111354
1.037373
0.6472895
0.3774772
0.2936663
0.2417509
0.25811
0.5442228
0.8677508
0.910241
0.7537964
0.6406309
0.671683
0.6632562
0.421437
-0.0001727924
-0.3186236
-0.341195
-0.2088249
-0.1113402
-0.1006198
-0.165164
-0.3532035
-0.6483147
-0.8700595
-0.9202172
-0.9043288
-0.9677322
-0.9834661
-0.7711369
-0.4492778
-0.1900247
0.01232469
0.1868834
0.2998031
0.4360488
0.5729977
0.6311056
0.6463128
0.5371153
0.3684924
0.2593942
0.1968087
0.1783729
0.146164
0.07136539
-0.07545
-0.2691615
-0.3809579
-0.3464156
-0.1770017
0.02273616
0.1606455
0.292031
0.4356028
0.4675066
0.3587186
0.2539051
0.2050382
0.1661678
0.1297515
0.04552045
-0.07286159
-0.1852513
-0.2713335
-0.2630199
-0.3135999
-0.4095753
-0.252122
0.0473945
0.2122552
0.1966441
0.03060734
-0.2702099
-0.5753555
-0.7402651
-0.8020492
-0.6804622
-0.3528229
-0.06361555
0.07457698
0.1067537
0.07079234
0.01898146
0.003578807
0.02429679
0.1241286
0.2910464
0.3280215
0.2607388
0.3103126
0.4199077
0.4486326
0.4087469
0.2770764
0.1224431
0.09599413
0.1296131
0.1535211
0.1819796
0.1827636
0.1545405
0.1004814
0.05915151
0.03425452
-0.0358182
-0.08503108
-0.06133708
0.01513908
0.134946
0.147097
-0.01166348
-0.1720604
-0.2915993
-0.4548228
-0.5528311
-0.5035176
-0.4461565
-0.3560307
-0.2190084
-0.1776989
-0.1902263
-0.1831741
-0.1360037
0.04883984
0.3742251
0.5757305
0.5025768
0.3573721
0.286218
0.2589575
0.2715013
0.3682574
0.4865659
0.620205
0.702507
0.4591554
0.09850787
-0.1993912
-0.7136932
-1.219354
-1.328223
-1.129519
-0.853084
-0.6130839
-0.4108905
-0.208544
0.06159086
0.3381917
0.4501171
0.4368043
0.4509532
0.4476654
0.3888153
0.3196402
0.1623979
0.03732612
0.07885209
0.107519
0.1511093
0.2592128
0.2206457
0.03759703
-0.06289278
0.0121068
0.01863321
-0.2346641
-0.484168
-0.4385925
-0.1634356
0.0002311719
-0.1112271
-0.2625296
-0.3399826
-0.3862765
-0.2709828
0.008619508
0.3264703
0.6121111
0.7297736
0.7284922
0.7289128
0.6811548
0.5558177
0.3741708
0.2899277
0.2285621
-0.1013702
-0.5815977
-0.8938872
-0.9415491
-0.8138343
-0.4702495
-0.008867291
0.1847662
0.01976255
-0.2603263
-0.3258162
-0.1945704
-0.06133405
0.1729323
0.35809
0.228834
-0.01935367
-0.1412828
-0.1745175
-0.1376393
0.01407633
0.1313741
0.1376256
0.2288558
0.4075983
0.4877406
0.4939362
0.3703701
0.0658497
-0.1989192
-0.4072621
-0.6285275
-0.7521026
-0.7167829
-0.5170158
-0.2787225
-0.1578708
-0.04942965
0.1778588
0.4473398
0.6481667
0.7457834
0.7472518
0.6600622
0.5482389
0.4778316
0.2880144
-0.03235016
-0.2418354
-0.4344416
-0.5690755
-0.4475589
-0.4225072
-0.690778
-0.9376959
-0.9948143
-0.9064808
-0.6223133
-0.1605052
0.2948891
0.6645485
0.8778486
0.9037049
0.8647273
0.8692203
0.8905914
0.7783627
0.5163915
0.2264951
0.004778252
-0.0759021
-0.02882938
0.04553887
0.01994481
-0.1838107
-0.5331131
-0.868291
-1.061358
-1.144919
-1.086414
-0.8413112
-0.5294908
-0.2665429
-0.09663162
0.05820325
0.3546861
0.8319622
1.289464
1.404425
1.206158
0.9516724
0.7009301
0.475899
0.3195155
0.2322605
0.1401364
-0.0378657
-0.3049506
-0.6326887
-0.935407
-1.219012
-1.4708
-1.515096
-1.310537
-0.9925334
-0.6474986
-0.3089561
-0.1268617
-0.1098882
0.01006961
0.3316941
0.6635575
0.7982302
0.8000342
0.8525946
0.9046128
0.8628911
0.7338092
0.5882702
0.5620311
0.5649909
0.4441925
0.2909442
0.2098622
0.1830408
0.1146965
-0.02308
-0.2649706
-0.5787699
-0.7251752
-0.6373483
-0.4092436
-0.187887
-0.1488416
-0.1331816
-0.08217037
-0.1030531
-0.1150752
-0.1767775
0.01772417
0.01247298
0.06076215
0.2329747
-0.4535487
0.6996718
1.567609
-0.6450934
-2.046278
-2.44331
-1.598557
-0.2813123
-0.01997843
0.939467
1.520445
1.407254
1.50172
1.302259
0.8210437
0.2342848
-0.246467
-0.5618867
-0.7455527
-0.7954584
-0.7330601
-0.5444854
-0.3311593
-0.1987154
-0.1145697
-0.08085833
-0.1084545
-0.04943775
0.09793209
0.1935584
0.2327573
0.2707614
0.3551284
0.4464228
0.4634622
0.3745846
0.1846602
-0.04448558
-0.2621324
-0.3992769
-0.368687
-0.2576434
-0.233283
-0.2811235
-0.2559769
-0.05154143
0.2801284
0.5410395
0.6654932
0.7201989
0.6806701
0.5386747
0.3237888
0.1064023
-0.02984205
-0.1727792
-0.3828206
-0.579333
-0.6764607
-0.6176134
-0.4151353
-0.1702923
-0.01251227
0.03872283
0.04518506
0.1062437
0.2360082
0.3078438
0.3171224
0.2857649
0.1756688
0.02183618
-0.1301555
-0.2880417
-0.4870349
-0.6578947
-0.7029067
-0.6087208
-0.3483129
0.01337584
0.2673344
0.3252946
0.2835284
0.2272607
0.167313
0.07446353
-0.05690239
-0.1316266
-0.05379107
0.08179053
0.1614318
0.254498
0.3266284
0.2697568
0.1634986
0.08886276
0.09588908
0.2141995
0.3809723
0.5008686
0.3778372
0.04262406
-0.1758152
-0.2487434
-0.2939767
-0.2688198
-0.1437607
-0.002989541
-0.08286792
-0.3725774
-0.5640458
-0.5866644
-0.4901785
-0.3305823
-0.1890433
-0.008370833
0.1289642
0.08024687
-0.03644068
-0.03270582
0.04983801
0.03364583
0.02303755
0.1005745
0.09662296
-0.01354255
-0.1146549
-0.06810784
0.1335013
0.3784662
0.5724216
0.6405094
0.5721257
0.3741528
0.1357157
-0.05305691
-0.1132424
-0.05765511
-0.07467781
-0.1057658
-0.1439666
-0.1711695
0.06825069
0.3544867
0.577222
0.7983854
0.7800112
0.7510024
0.7751008
0.4396579
-0.1618167
-0.6561179
-0.8739632
-0.9101745
-0.9729693
-1.105077
-1.208053
-1.174608
-0.9865589
-0.6579918
-0.2673601
-0.007635041
0.09691155
0.2013324
0.3576488
0.5042343
0.4984146
0.4177968
0.4067422
0.2814487
0.2165173
0.1904215
0.4580433
0.9752498
0.1696408
-0.2391706
1.09804
0.8785006
-0.4808155
-0.5550808
-0.2974713
-0.5219564
-0.9499373
-1.072746
-0.8135343
-0.6396578
-0.5079777
-0.2463276
-0.02369758
0.01630875
0.09576094
0.3013186
0.3299296
0.2431682
0.2614202
0.3888595
0.5673157
0.6541186
0.654785
0.7194048
0.855689
0.9430501
0.9528829
0.9353574
0.8589408
0.6731657
0.3975405
0.1044677
-0.1243101
-0.254938
-0.3224914
-0.3151843
-0.2991006
-0.3930252
-0.4954042
-0.6319705
-0.8987976
-1.145533
-1.295255
-1.387629
-1.490597
-1.645935
-1.730046
-1.660928
-1.529366
-1.328474
-0.9105752
-0.04953644
1.390829
3.064161
4.470692
5.346355
5.409392
4.165223
1.437672
-2.072593
-5.446417
-8.007691
-9.09047
-8.23929
-5.589725
-1.790672
2.278682
5.577375
7.488285
8.083694
7.569069
6.293744
4.760922
3.356823
2.242986
1.246915
0.2906936
-0.458701
-1.17247
-2.203058
-3.541999
-4.890094
-5.893335
-6.201608
-5.696274
-4.618768
-3.234586
-1.689014
-0.1062015
1.380755
2.614295
3.418191
3.672877
3.435717
2.907013
2.315404
1.836413
1.509784
1.20078
0.7409269
0.09784576
-0.6607188
-1.408388
-2.038195
-2.511487
-2.756763
-2.648319
-2.151598
-1.502794
-0.8794606
-0.1850067
0.4846734
0.9412215
1.178082
1.146479
0.9371662
0.7696885
0.6449271
0.6355341
0.8438698
1.107223
1.351057
1.526673
1.51178
1.279427
0.8090755
0.2570331
-0.1557551
-0.4027954
-0.6320465
-1.029242
-1.525503
-1.891379
-1.978397
-1.800926
-1.467409
-1.018363
-0.5057977
-0.01299936
0.4477592
0.8049138
0.9784822
1.038185
1.007897
0.9193211
0.8312028
0.6347319
0.3791371
0.2491297
0.1472349
-0.0005000303
-0.135217
-0.3210234
-0.5304116
-0.6374145
-0.613363
-0.5076738
-0.3536124
-0.1618554
0.02528582
0.2062796
0.3152716
0.2890733
0.2524758
0.2483314
0.2883155
0.4664906
0.6665605
0.8025258
0.9320462
0.8840135
0.499366
-0.07448544
-0.5953465
-0.9536838
-1.142707
-1.136089
-0.9412113
-0.6148736
-0.2845775
-0.1182772
-0.1278645
-0.2125297
-0.236639
-0.04552533
0.3524948
0.8409026
1.311973
1.515974
1.269595
0.7784482
0.2108203
-0.4815823
-1.193394
-1.717758
-1.882303
-1.681847
-1.227564
-0.6056513
-0.03786242
0.2338645
0.2151676
0.0824546
-0.07056393
-0.1192847
0.01771383
0.2476272
0.5957248
1.025057
1.397267
1.579519
1.39469
0.8625759
0.2163333
-0.2642869
-0.4802296
-0.4783892
-0.3069558
-0.119937
-0.002338574
0.01050726
-0.1603536
-0.3976337
-0.6039039
-0.833717
-0.9401118
-0.7031159
-0.199915
0.3250877
0.6992515
0.824214
0.6619347
0.2921271
-0.06510606
-0.258395
-0.3248912
-0.2888288
-0.1392043
0.07051359
0.2722712
0.4062277
0.4339041
0.3122617
0.07189596
-0.1028366
-0.2092255
-0.2859025
-0.1691012
0.09757339
0.3676597
0.5439696
0.5170123
0.2971173
-0.07207517
-0.4642374
-0.7277868
-0.8796855
-0.949946
-0.9148255
-0.7364345
-0.3715403
0.07296507
0.4381486
0.6782207
0.7623439
0.7068231
0.5858478
0.4075111
0.1926094
0.140686
0.3762631
0.6180043
0.5874835
0.3721081
0.0876327
-0.225273
-0.5168362
-0.7583813
-0.857025
-0.8445681
-0.8778902
-0.917223
-0.7991233
-0.4785141
-0.06762733
0.3105305
0.5622784
0.6478235
0.6273381
0.518267
0.2579434
-0.07395506
-0.2143617
-0.08725508
0.2035836
0.5345686
0.6658588
0.5487297
0.406572
0.3271944
0.2677995
0.2043107
0.04012423
-0.1626796
-0.2152778
-0.2082886
-0.2381035
-0.2611233
-0.2661636
-0.2632113
-0.2439668
-0.09764829
0.1049187
0.1776519
0.1248913
-0.06221849
-0.3176815
-0.4419229
-0.3797623
-0.2495216
-0.2274769
-0.3632244
-0.436379
-0.2902612
-0.08145683
0.04234387
0.03039886
-0.07532575
-0.05902287
0.1065354
0.2025219
0.1611852
0.03260019
-0.09739256
-0.09900237
-0.005589151
0.1553654
0.3482545
0.3630395
0.2579024
0.2180843
0.2014215
0.2132954
0.2980944
0.3781851
0.4073671
0.4090121
0.3603327
0.327792
0.318353
0.1659716
-0.1041567
-0.3229318
-0.4270516
-0.4685581
-0.4433424
-0.3244937
-0.1962093
-0.03608173
0.1981705
0.362011
0.4032491
0.3853929
0.1970118
-0.1275463
-0.3264423
-0.4742211
-0.6998232
-0.8318583
-0.7968352
-0.6347179
-0.3747754
-0.1139087
0.08420964
0.2222578
0.2662531
0.2001775
0.1087673
0.09637555
0.1655504
0.1953086
0.1518721
0.09714331
0.0249874
-0.04884903
-0.0718744
-0.03384705
-0.003157624
0.00618047
0.0681044
0.1498768
0.2178441
0.3089272
0.4448804
0.6093599
0.6914026
0.6738348
0.6380444
0.5154719
0.2758874
-0.02651386
-0.3625315
-0.4925261
-0.2232454
0.1496552
0.3418178
0.3883563
0.264951
-0.07117702
-0.5846839
-1.048571
-1.346508
-1.671275
-1.860044
-1.810012
-1.608976
-1.051105
-0.1994817
0.5635988
0.8002561
0.3788987
-0.08922582
-0.007576874
0.5010843
1.103718
1.698537
2.175559
2.463544
2.757226
3.124002
3.239714
2.988126
2.528143
1.718738
0.4505243
-1.07931
-2.630843
-4.047067
-5.302715
-6.262753
-6.675075
-6.388281
-5.325627
-3.683506
-1.898431
-0.1399402
1.580891
3.041779
4.022727
4.561903
4.79432
4.678311
4.170764
3.475588
2.72009
1.852392
0.9708651
0.2191858
-0.3659494
-0.7409256
-0.9077167
-0.9678237
-0.9923822
-0.9820334
-0.9814479
-1.022329
-1.02992
-0.9788202
-0.9205747
-0.8117682
-0.6079894
-0.3975046
-0.2375558
-0.1091313
-0.03434144
-0.04117197
-0.1288151
-0.2485084
-0.315855
-0.3346474
-0.3387584
-0.3407326
-0.3672835
-0.3766879
-0.3566378
-0.3358355
-0.2419755
0.001054912
0.3132536
0.5079274
0.5923579
0.7097918
0.8046123
0.8349477
0.8676757
0.8047925
0.5983435
0.3941822
0.2723995
0.2078839
0.1751753
0.1347138
0.02741559
-0.09762184
-0.1743416
-0.208998
-0.2229805
-0.3621177
-0.6435437
-0.8220507
-0.8116382
-0.6770211
-0.4978992
-0.3541352
-0.1333766
0.1568844
0.3348425
0.4597257
0.4731984
0.1887708
-0.1987408
-0.4285134
-0.470493
-0.3894085
-0.3222446
-0.2918974
-0.2115053
-0.09861595
0.08996493
0.3688201
0.5263755
0.5077798
0.5032361
0.5154071
0.4742034
0.4931031
0.5578438
0.534189
0.4495277
0.3235997
0.1442338
0.03692283
0.0118211
-0.1091344
-0.3689997
-0.6487394
-0.8722782
-1.024104
-1.021008
-0.7093734
-0.1691049
0.2383201
0.4105231
0.3882718
0.163028
-0.03265364
-0.08215615
0.02144337
0.2454761
0.3396532
0.3245519
0.4282378
0.5781177
0.5089354
0.1835878
-0.1316679
-0.2833101
-0.387856
-0.4771243
-0.4335656
-0.3348035
-0.3774852
-0.5175917
-0.5105156
-0.2246858
0.1395573
0.2229581
0.04621853
-0.007075993
0.1712506
0.3888249
0.513611
0.4914981
0.3563132
0.2400606
0.2346828
0.3036093
0.3530746
0.3288073
0.2227646
0.1198099
0.114366
0.09057656
-0.09488447
-0.3519662
-0.4976198
-0.4233759
-0.1918654
-0.04878097
-0.1138421
-0.1872186
-0.06166108
0.1667697
0.2270384
0.07463831
-0.1769464
-0.4751244
-0.697086
-0.7733533
-0.7006716
-0.5368283
-0.3515663
-0.05914427
0.2353123
0.3321665
0.2876877
0.2813021
0.4587355
0.6660599
0.6479955
0.475186
0.2445853
-0.02101629
-0.1914778
-0.2309001
-0.1936741
-0.1091444
0.005100187
0.1331692
0.1601595
0.03902769
-0.1112137
-0.2035531
-0.2125168
-0.1900038
-0.1661395
-0.09332763
0.02311934
0.1155001
0.1449635
0.1522355
0.131804
0.1248888
0.200665
0.2499245
0.2423893
0.200206
0.06882612
-0.0006764079
0.1191444
0.2448723
0.2260199
0.1163602
0.07247506
0.1373144
0.09853868
-0.104448
-0.3309625
-0.5154193
-0.5253707
-0.3986832
-0.3708643
-0.4062418
-0.4042117
-0.3716769
-0.269629
-0.1690721
-0.1763606
-0.1408004
0.04466773
0.202415
0.2553742
0.2526194
0.2518941
0.2805837
0.1856785
-0.04158934
-0.1026656
0.1009964
0.3376457
0.5393113
0.7466518
0.85803
0.8644083
0.7651423
0.5127998
0.1905221
-0.1126213
-0.3879872
-0.6159843
-0.7374913
-0.8095174
-0.9652361
-1.133889
-1.148083
-0.9282694
-0.5506055
-0.2627768
-0.08956206
0.109307
0.3312451
0.5366318
0.5691558
0.4396522
0.3954184
0.4851834
0.5803336
0.5118101
0.3406572
0.3028809
0.3139107
0.157835
-0.07412472
-0.2157252
-0.1866043
-0.02197476
0.05217054
0.01779815
-0.01583299
-0.03747335
0.03664893
0.1147764
0.02154926
-0.157288
-0.2757226
-0.3057848
-0.2628843
-0.1557476
0.02618392
0.2408834
0.3311552
0.2900353
0.2698976
0.2100214
0.03070736
-0.1933238
-0.4369463
-0.6105026
-0.6101215
-0.460579
-0.2355215
-0.03065787
0.1027893
0.1221558
0.05817892
0.02613829
0.01912511
-0.007560438
-0.06746411
-0.086728
0.05099929
0.1995117
0.179018
0.04111766
-0.1525541
-0.3616055
-0.500963
-0.5341403
-0.4513929
-0.2268033
0.09552894
0.4959178
0.8758802
0.9992857
0.9438874
0.8988578
0.7754971
0.5365763
0.3095868
0.1608091
0.08501335
0.0789987
0.1246962
0.1273598
-0.03860728
-0.2364388
-0.2833062
-0.2807335
-0.2695388
-0.3267885
-0.5584422
-0.7951642
-0.9257253
-0.9055314
-0.7863875
-0.7085552
-0.6513548
-0.7135444
-0.7487936
-0.3854861
0.1646997
0.5639877
0.7347382
0.6628321
0.5814401
0.6592799
0.7410689
0.7134749
0.6250577
0.5302013
0.3905537
0.2051727
0.08375072
0.05750311
0.01988341
-0.09040736
-0.17583
-0.1054665
0.08558343
0.1089461
-0.1290283
-0.3358593
-0.391762
-0.4094083
-0.4481426
-0.4363024
-0.2448929
0.1168492
0.4632528
0.5611553
0.3468397
-0.01492166
-0.3327029
-0.5501933
-0.6310441
-0.4983859
-0.3216918
-0.3215426
-0.3194464
-0.08155313
0.2910814
0.5271732
0.6014727
0.7372456
0.9274486
1.080917
1.194661
1.067588
0.5946231
0.06198715
-0.2787983
-0.5165091
-0.7711964
-0.9525066
-1.009267
-0.9908186
-0.8682309
-0.6993515
-0.5892545
-0.4854781
-0.3706123
-0.2628012
-0.1281468
0.02350629
0.221043
0.429016
0.5060008
0.4769274
0.3523106
0.1488763
0.09624473
0.1900287
0.2319472
0.1724438
0.05702943
0.002365654
0.02399749
0.05702892
0.05682311
-0.04558851
-0.1165442
0.06731465
0.3750517
0.515275
0.4248806
0.2214665
0.0198464
-0.1680857
-0.2822467
-0.2361848
-0.1353894
-0.1212569
-0.1506269
-0.07049891
0.03882055
0.01694609
0.05526662
0.2082201
0.2179845
0.1175431
0.05403744
-0.01216181
-0.06750101
-0.04193506
0.1095363
0.3323125
0.5089677
0.6121469
0.5704345
0.3291914
-0.01429152
-0.4520262
-0.8844758
-1.033137
-0.9477965
-0.8059734
-0.7215049
-0.7186971
-0.5395026
-0.2045729
-0.03857278
-0.03041467
0.07154831
0.2630996
0.3747531
0.4067738
0.3992469
0.396172
0.443392
0.4981061
0.5018396
0.339189
0.004840519
-0.2114088
-0.1391408
0.06638794
0.2410695
0.285833
0.1658661
0.01033611
-0.06683121
-0.05993206
0.01402418
0.0867555
0.1379925
0.1670936
0.09435564
-0.03495394
-0.127434
-0.213603
-0.2719671
-0.267861
-0.2751102
-0.3650985
-0.506207
-0.5077277
-0.2568456
0.03516518
0.2211739
0.3512216
0.3431793
0.1881517
0.04117334
-0.0541949
-0.07730408
0.0505881
0.2943058
0.337173
0.01152027
-0.2268915
-0.1082969
0.0831076
0.217936
0.2434124
0.07729739
-0.09838724
-0.1008049
-0.002892485
0.1069396
0.2233628
0.2382367
0.1489834
0.1950963
0.3876367
0.4680353
0.4000562
0.3016459
0.170863
-0.007886369
-0.2164853
-0.4592324
-0.7492211
-1.070785
-1.351868
-1.480817
-1.438258
-1.216677
-0.7294392
-0.09313653
0.4587209
0.895216
1.231303
1.36424
1.250703
0.9945542
0.7219797
0.4282309
0.08159566
-0.1406871
-0.1431908
-0.1054126
-0.04133354
0.1445015
0.2925485
0.340469
0.3890493
0.341654
0.138232
-0.07934287
-0.2142261
-0.2885883
-0.3109861
-0.3613746
-0.5234268
-0.6787593
-0.7831881
-0.8057938
-0.655582
-0.442459
-0.3017626
-0.2345128
-0.1587362
-0.06237152
-0.01512328
0.01022981
0.06050432
0.1029004
0.1500716
0.3171945
0.5653638
0.6947095
0.6877277
0.6559821
0.6275658
0.5498532
0.355786
0.1003703
-0.01167423
0.07281846
0.2653115
0.6050887
0.980529
1.118446
0.9279298
0.5156195
0.1635214
0.02997037
-0.09665743
-0.4100766
-0.8006809
-1.103411
-1.343365
-1.666708
-1.985476
-2.015716
-1.822275
-1.551629
-1.112297
-0.6135083
-0.2376795
0.0165908
0.1490706
0.1173171
-0.1376833
-0.5257765
-0.7061719
-0.3625769
0.5830036
1.933649
3.281833
4.195986
4.384919
3.79773
2.705861
1.483949
0.265175
-0.8311474
-1.621077
-2.171819
-2.593465
-2.824354
-2.886905
-2.768354
-2.162559
-1.007509
0.3539418
1.681631
2.716562
3.204454
3.097561
2.449586
1.615355
0.8719786
0.04763701
-0.9137261
-1.877426
-2.744591
-3.410477
-3.793998
-3.713848
-3.040077
-1.942338
-0.5182313
1.210053
2.851525
3.862145
4.058811
3.705112
3.067451
2.177371
1.071763
-0.1460119
-1.312497
-2.276616
-3.037733
-3.571244
-3.820125
-3.800738
-3.362272
-2.365946
-1.057234
0.2114031
1.227697
1.941915
2.450034
2.830376
3.055094
3.02924
2.752728
2.30417
1.747025
1.138045
0.4606692
-0.2522016
-0.8885022
-1.264663
-1.277189
-1.241243
-1.260098
-1.181834
-1.120513
-0.9395524
-0.6456161
-0.3996955
-0.265146
-0.09388503
0.5754947
0.8627006
0.3388655
-0.1701257
0.3814892
1.914198
0.6459811
-2.01311
-0.8359742
0.7517192
-0.1653056
-0.5639708
0.02885682
0.493514
0.5848773
0.3153472
0.2386833
0.2203857
-0.05870407
-0.1488884
0.08427404
0.1612133
-0.02803513
0.04595488
0.4517687
0.814522
0.9204676
0.7051712
0.3274375
-0.08881949
-0.5006098
-0.8102638
-0.9822198
-1.051443
-1.065112
-1.043673
-0.9815834
-0.9402332
-0.9604728
-0.8828332
-0.6056293
-0.2324723
0.2264856
0.7056423
0.8572016
0.6186817
0.3596222
0.2198944
0.179095
0.3736844
0.7473406
1.065242
1.239785
1.200214
0.8852183
0.4163778
-0.05713771
-0.386369
-0.3521155
-0.06245175
0.08823392
-0.03496345
-0.3355678
-0.5840661
-0.5918331
-0.4457294
-0.2968901
-0.1720753
0.003396507
0.1670063
0.2164416
0.2517665
0.2366202
0.05312239
-0.2148646
-0.6221513
-1.174168
-1.510532
-1.440434
-1.042799
-0.4446117
0.117276
0.4516927
0.6022404
0.7138929
0.7972211
0.8247764
0.8306044
0.7954527
0.6330779
0.3839782
0.1993084
0.1348919
0.1873594
0.2419644
0.2649125
0.3563922
0.3829446
0.2362866
0.07764806
-0.02962209
-0.1752737
-0.2992339
-0.3119636
-0.2636971
-0.2266034
-0.2306853
-0.2872447
-0.4264299
-0.5834261
-0.6316116
-0.5581236
-0.4047654
-0.1701627
0.09739496
0.2201901
0.1516603
0.06070626
0.06251055
0.1766263
0.2977324
0.2500136
0.08222239
-0.0594166
-0.1330772
-0.06764421
0.1294071
0.3406397
0.4737157
0.435692
0.2222663
-0.07360475
-0.3349878
-0.4424117
-0.3749703
-0.2475307
-0.1842946
-0.1577204
-0.0490352
0.1502546
0.3741371
0.5236585
0.4105858
0.0245371
-0.376296
-0.5672768
-0.5098033
-0.2676418
0.07911058
0.3836669
0.5271974
0.5348272
0.4045035
0.1002949
-0.2214667
-0.3643099
-0.275244
-0.01674563
0.246308
0.3874117
0.3940975
0.391322
0.4356519
0.3524089
0.08552614
-0.2556457
-0.6700754
-1.062098
-1.169771
-0.9329234
-0.48448
-0.03526956
0.2139063
0.2966107
0.3234905
0.3265568
0.3486952
0.3554009
0.2717562
0.1517345
0.03322905
-0.09553941
-0.177852
-0.2203473
-0.2134725
-0.07147671
0.06827862
0.008998357
-0.1693652
-0.289721
-0.2971886
-0.2939653
-0.3763398
-0.4460981
-0.2531387
0.1939153
0.5221012
0.6637165
0.7688872
0.8100813
0.7943804
0.6774708
0.4464224
0.2186163
0.06101332
0.01236618
0.04290319
0.03352694
-0.04253538
-0.05924775
0.008479344
0.06298827
0.08686043
0.04892597
-0.04976992
-0.1485715
-0.3528489
-0.7335904
-1.111543
-1.266906
-1.131304
-0.8211104
-0.545015
-0.3912395
-0.1998297
0.1131157
0.391185
0.6021807
0.7827066
0.8365054
0.7984519
0.7294639
0.5351534
0.3048448
0.2087454
0.2165341
0.2703904
0.3286647
0.315058
0.2275237
0.1372772
-0.00267575
-0.2425728
-0.4466032
-0.5383293
-0.5683875
-0.6539977
-0.808329
-0.8190389
-0.6707227
-0.5031603
-0.335146
-0.1671657
-0.02956986
0.02763162
0.03359053
0.04253073
0.1006007
0.2107615
0.2968662
0.441553
0.7353658
0.9725817
0.9666623
0.8236499
0.718977
0.804872
0.9741049
0.8734393
0.5627729
0.3557581
0.1670216
-0.3378233
-0.9827729
-1.338198
-1.553074
-1.773376
-1.968783
-2.160669
-1.938087
-1.000454
0.3271818
1.384071
1.623085
1.34057
1.163725
1.045627
0.7391478
0.2952387
-0.1322001
-0.4698047
-0.7407066
-0.8444256
-0.6445512
-0.1949718
0.3725843
0.9329604
1.389832
1.626754
1.45603
0.8885702
0.1610242
-0.5309726
-1.031263
-1.270848
-1.219142
-0.9557694
-0.7426436
-0.5884908
-0.3500583
-0.05965116
0.1362233
0.2305955
0.4397567
0.6885199
0.6851702
0.4328494
0.1585339
-6.057335e-05
-0.05284484
0.02666323
0.1416958
0.1015162
-0.06202229
-0.2145014
-0.3096856
-0.3698409
-0.3778158
-0.3743252
-0.4027634
-0.272872
0.07742328
0.4324811
0.6482182
0.6680251
0.4879175
0.2116684
0.005615415
-0.05695378
-0.04318151
-0.0178345
-0.03206999
-0.07943828
-0.1366538
-0.23816
-0.3322044
-0.377634
-0.4601796
-0.4998794
-0.289956
0.04329026
0.2710419
0.4054769
0.4549031
0.3447118
0.07900897
-0.2139689
-0.4103906
-0.474826
-0.4427218
-0.350559
-0.160885
0.1201767
0.3170363
0.3476294
0.4194175
0.5967802
0.6314608
0.4550676
0.2828114
0.2760918
0.4104284
0.4648523
0.2770023
-0.0535436
-0.3865301
-0.6036056
-0.7049803
-0.8411644
-1.012925
-1.081813
-0.9739756
-0.7040166
-0.2538513
0.3908596
1.14273
1.889417
2.272361
2.022708
1.475123
0.8714114
0.1881913
-0.3838351
-0.6543248
-0.692803
-0.7353156
-0.9764647
-1.400395
-1.827885
-2.056723
-1.940362
-1.567953
-1.086613
-0.503759
0.09266061
0.5388789
0.7856241
0.9602357
1.073388
1.079046
1.111184
1.096239
0.9264632
0.6921875
0.3790108
0.1208798
0.1349659
0.2920412
0.3521588
0.2964563
0.2979011
0.3837985
0.383675
0.2531123
0.05889016
-0.1861902
-0.4591171
-0.6032667
-0.5133839
-0.3559838
-0.3474751
-0.4575255
-0.4598761
-0.2956314
-0.1901697
-0.1940282
-0.1810309
-0.2185772
-0.2264273
-0.1035228
-0.01999386
0.06827032
0.1636628
0.1164236
0.06929909
0.08817261
0.01893968
-0.1838516
-0.3662632
-0.382834
-0.3129574
-0.2530188
-0.08355457
0.3016852
0.614822
0.6471019
0.6008213
0.5041824
0.2839535
0.05968637
-0.06371844
-0.07486404
0.07484906
0.315235
0.321757
0.05118058
-0.2316953
-0.4395397
-0.617556
-0.6969334
-0.5614545
-0.3103476
-0.1060219
-0.02706901
-0.02997168
0.0171969
0.1171944
0.2741138
0.4290382
0.423564
0.3168657
0.2531863
0.2258661
0.2239929
0.2157765
0.04642549
-0.2490923
-0.4828597
-0.5974039
-0.592031
-0.5113223
-0.3198909
-0.06195192
0.04416293
0.08229098
0.1304971
0.09648058
0.1180972
0.2317165
0.3692029
0.4766599
0.4480992
0.4836571
0.6923351
0.724934
0.4645156
0.1764413
0.01903147
0.04415515
0.1731874
0.2034424
0.1094373
-0.04782259
-0.1986014
-0.3043924
-0.40643
-0.514507
-0.6264029
-0.7227989
-0.7840183
-0.7797521
-0.7354024
-0.7197637
-0.6890347
-0.591529
-0.424195
-0.1884532
0.06979918
0.3000696
0.5147691
0.6473367
0.6000471
0.5106419
0.5022717
0.5113024
0.5613515
0.6419751
0.5539715
0.3552996
0.3312093
0.421789
0.4978965
0.5441355
0.4191241
0.1683046
-0.06713463
-0.281554
-0.4599607
-0.6127394
-0.6708617
-0.5748209
-0.5171233
-0.5923563
-0.6473272
-0.6492755
-0.5917838
-0.4695577
-0.4141777
-0.4050557
-0.3234872
-0.1130595
0.1277913
0.1682808
0.1646633
0.4604808
0.8499699
0.9492904
0.7313051
0.3551674
0.1155422
0.1651421
0.3634118
0.550667
0.6074015
0.5033686
0.2646386
-0.01211861
-0.1780344
-0.2784296
-0.4571689
-0.6778542
-0.8432316
-0.8877594
-0.7594291
-0.5396577
-0.3127387
-0.1428819
-0.03278363
0.1045381
0.2542233
0.4354119
0.557463
0.4839719
0.3878952
0.3791956
0.3726917
0.3606032
0.3411185
0.3748395
0.5790352
0.7338374
0.5594673
0.1825124
-0.1815379
-0.4865668
-0.7081979
-0.7866475
-0.7498216
-0.6353407
-0.4488478
-0.3012987
-0.3267988
-0.4149761
-0.3106478
-0.0885682
0.03845342
0.09547776
0.1202712
0.05529759
-0.06976422
-0.1156373
-0.03475339
0.07211953
0.08872411
0.06446545
0.1048822
0.1486932
0.1470335
0.1305815
0.224611
0.5132992
0.6890026
0.5298825
0.2928278
0.1637409
0.1157622
0.1369169
0.1160152
-0.01805089
-0.2150935
-0.4871404
-0.7262613
-0.7941509
-0.7160146
-0.4728418
-0.1551909
0.02081574
0.04707597
0.02084144
0.02492966
0.06110835
0.05985782
0.126752
0.3065351
0.4512071
0.548201
0.5637426
0.3835103
0.1932517
0.2316746
0.3561217
0.325681
0.1277537
-0.09307691
-0.2362428
-0.3033265
-0.3385415
-0.3926109
-0.4228278
-0.4061946
-0.3905074
-0.3506609
-0.3104668
-0.292281
-0.2130293
-0.1045478
-0.04517436
0.03608104
0.1676129
0.2500914
0.2474377
0.2437918
0.2468588
0.1284331
-0.09739545
-0.2643652
-0.2919449
-0.2383584
-0.1080978
0.2191255
0.6615352
0.9537026
0.9389261
0.6599809
0.3284821
0.0686353
-0.1164092
-0.1907562
-0.1954103
-0.1772831
-0.07125353
0.05037407
0.03502402
-0.09803889
-0.3222828
-0.5925472
-0.7418404
-0.7070074
-0.5040537
-0.1533047
0.2110618
0.4283699
0.4177836
0.2821302
0.1508664
0.06838673
0.1642721
0.3514607
0.4141979
0.3236825
0.04793021
-0.3369809
-0.6393881
-0.7658863
-0.7626337
-0.7364697
-0.7097982
-0.6645381
-0.5904763
-0.3765014
0.03886839
0.4041525
0.5360773
0.6370666
0.7502994
0.5990932
0.2990129
0.2629708
0.4150926
0.4500354
0.3547654
0.2435301
0.1197505
0.010129
-0.02673582
-0.2160025
-0.4909677
-0.4974317
-0.3065073
0.1340281
0.680687
0.822731
0.5767397
0.2181055
-0.01717347
-0.1214597
-0.1855886
-0.0996934
0.03563104
0.06097215
-0.02882311
-0.1490002
-0.218228
-0.2752603
-0.2509717
-0.1799925
-0.1462818
-0.1305567
-0.1242473
-0.1678601
-0.26081
-0.2035348
-0.353801
-0.2402334
0.009793845
-0.7945897
-0.7162169
0.1426208
-0.1643175
-0.2123482
0.2532438
0.4919948
0.5065696
0.4101699
0.5382478
0.5468498
0.4063102
0.344632
0.3712712
0.5025647
0.5246651
0.4715209
0.3968089
0.188631
-0.08394032
-0.3192145
-0.4640372
-0.498817
-0.3588755
-0.1463875
-0.08873135
-0.1611083
-0.2834205
-0.4448868
-0.6140203
-0.6343224
-0.3896989
-0.1653795
-0.1335485
-0.06304894
0.09944855
0.2470982
0.1995206
0.03440763
0.03938305
-0.02306854
-0.02513461
0.008167321
0.07567304
0.3940075
-0.2474548
-0.7254897
0.1161544
0.04995948
-0.4343795
-0.03885584
0.3855302
0.4822936
0.3673483
0.3081653
0.2070288
0.06727334
0.172752
0.3921156
0.590799
0.6281441
0.4556325
0.2299425
0.05954628
-0.02528928
-0.1178042
-0.2391326
-0.3048838
-0.323579
-0.2553652
-0.039419
0.1327717
0.01299461
-0.3083051
-0.5586402
-0.6212612
-0.5124243
-0.2459719
0.005285426
0.00791892
-0.08844692
-0.05284351
0.04691706
0.09554733
0.1131496
0.08868775
-0.01977774
-0.05486097
0.009634621
0.007417126
-0.06839163
-0.1453649
-0.1494743
-0.08940946
-0.01505605
-0.01623695
0.03883206
0.2100228
0.2872109
0.4571664
0.5452563
0.4105443
0.3023066
0.2730105
0.341675
0.2181908
-0.01672707
-0.1790187
-0.1774466
0.1608236
0.4200023
0.3063437
0.1807273
0.01513732
-0.1116693
0.0728211
-0.2828602
-0.9138011
-1.027501
-0.223941
0.9312246
-0.3806714
-2.180212
-0.6365182
0.7076594
-0.6559645
-1.114612
-0.002293977
0.2448992
0.08190469
0.4058173
0.4897922
0.09675561
-0.2498304
-0.1029978
0.4072125
0.6991949
0.5286158
0.2192453
0.09892571
0.140895
0.2047109
0.2505682
0.3019692
0.3590239
0.2806672
0.1089283
0.1223782
0.2551825
0.3399926
0.4248234
0.4567685
0.4204796
0.3736402
0.2463984
0.1239814
0.1545339
0.1134664
-0.2179029
-0.6466746
-0.950119
-1.116612
-1.182531
-1.171496
-1.046671
-0.8072149
-0.5654622
-0.3199387
-0.07986813
0.06800584
0.1367683
0.1681726
0.2856209
0.5116161
0.6314592
0.5297164
0.3305779
0.2402943
0.2842821
0.2982084
0.2631868
0.3143621
0.3804989
0.3791437
0.3522701
0.191505
-0.06300934
-0.2010517
-0.1715176
-0.1258432
-0.2269259
-0.3187631
-0.2802096
-0.2431848
-0.2740875
-0.3555912
-0.3588839
-0.2245147
-0.1086755
-0.07530762
-0.03487574
0.08287133
0.2049798
0.1778444
0.02643056
-0.1187875
-0.1881102
-0.1534151
-0.01500638
0.2183564
0.3931045
0.3462788
0.2129423
0.1887733
0.2808838
0.4706781
0.7201917
0.7821048
0.5940072
0.5898591
0.9227981
1.191272
1.182626
0.9482952
0.5791867
0.238835
-0.09209627
-0.4989514
-0.8800461
-1.22142
-1.664125
-2.286419
-2.878524
-3.005584
-2.500706
-1.662081
-0.8725377
-0.1721513
0.4989264
0.8723552
0.7422872
0.4119472
0.1918751
-0.09281863
-0.5804862
-1.027514
-1.095969
-0.4416549
0.9600589
2.518174
3.638734
4.213767
4.217165
3.631859
2.552323
1.072868
-0.3949717
-1.547135
-2.485374
-3.059653
-3.195781
-3.100778
-2.694218
-1.852751
-0.6527203
0.7617069
1.976646
2.730683
3.21422
3.416921
3.247101
2.767264
1.909228
0.6682877
-0.8096542
-2.343417
-3.715897
-4.729057
-5.27084
-5.223218
-4.387532
-2.78563
-0.7509672
1.359312
3.205128
4.303159
4.381744
3.799239
2.966748
2.035794
1.10906
0.1525944
-0.8066596
-1.708983
-2.557172
-3.195189
-3.491731
-3.394667
-2.835867
-1.930766
-0.8704429
0.1874216
1.040553
1.661962
2.207125
2.732093
3.131098
3.231169
2.966115
2.442214
1.69623
0.8149294
0.03347295
-0.6251829
-1.101999
-1.351811
-1.532873
-1.571406
-1.602907
-1.819418
-1.839933
-1.5251
-1.036883
-0.4136649
0.1274847
0.4755874
0.7813997
1.106672
1.37109
1.471646
1.372129
1.056462
0.5996013
0.3047742
0.2877094
0.2462666
0.08415598
-0.05527281
-0.2489478
-0.4235569
-0.4011268
-0.3910693
-0.5418199
-0.7202977
-0.8614724
-0.8782778
-0.7439114
-0.6088843
-0.3289673
0.2921443
0.8209783
0.8076698
0.4552995
0.168867
0.1320404
0.3208087
0.5538658
0.585458
0.3554701
-0.06092154
-0.6806
-1.422172
-1.935798
-1.845215
-1.216861
-0.5279979
-0.05800235
0.2260892
0.3640578
0.4157238
0.4355031
0.4210904
0.5136204
0.7449837
0.9693639
1.222036
1.423489
1.3418
0.9515992
0.3846083
-0.08055744
-0.2813592
-0.3892616
-0.4574229
-0.3786788
-0.2113625
-0.09246554
-0.09865008
-0.238383
-0.4881323
-0.7448992
-0.862694
-0.8332198
-0.6888069
-0.3539308
0.08072539
0.3255092
0.2875513
0.08458854
-0.1220696
-0.2261676
-0.2592728
-0.2463455
-0.08628628
0.2217769
0.4473625
0.4613364
0.3593266
0.192613
-0.02935861
-0.1647542
-0.1326995
-0.04695197
0.1136006
0.4188384
0.6657459
0.6812418
0.4901273
0.1679542
-0.1453245
-0.2679094
-0.104778
0.253145
0.6500463
0.9015387
0.7973823
0.3751258
-0.104785
-0.4781662
-0.6865983
-0.6303234
-0.3718702
-0.144078
-0.02209307
-0.08873741
-0.3827089
-0.7008458
-0.9924537
-1.218094
-1.177701
-0.868345
-0.4147401
-0.02927069
0.1942054
0.3736733
0.4349409
0.3304867
0.1443851
0.01888427
0.1125317
0.1988425
0.1072627
0.1897383
0.6671622
1.150098
1.22006
0.9323873
0.5316921
0.2804653
0.2932862
0.3622961
0.2552411
0.0566209
0.0359547
0.1597137
0.1231006
-0.08629501
-0.3223337
-0.622647
-0.870721
-0.8516873
-0.65318
-0.4992118
-0.3988899
-0.2457417
-0.1416482
-0.2102574
-0.2840302
-0.2536028
-0.2785697
-0.3847053
-0.4606765
-0.4456376
-0.2868465
-0.02922257
0.2360973
0.4199433
0.4501181
0.4360721
0.5373802
0.663334
0.627802
0.496767
0.3897421
0.3096008
0.2507335
0.1353675
-0.01839486
-0.130403
-0.2435918
-0.3258223
-0.2589198
-0.07159825
-0.02961969
-0.2309007
-0.4738609
-0.5948875
-0.3739462
0.177336
0.5771742
0.5796534
0.3669308
0.1093579
-0.09192357
-0.1914879
-0.2536966
-0.2632374
-0.1200621
0.1189841
0.2755929
0.2133117
0.06310812
0.04648371
-0.02640313
-0.2503525
-0.3513429
-0.2509563
0.005032809
0.309956
0.4976222
0.5853066
0.5905102
0.502793
0.3809417
0.1587235
-0.03111054
-0.1782111
-0.5608389
-0.6441355
-0.3943135
-0.628678
-0.8547453
-0.6137733
-0.424584
-0.2293315
0.09971408
0.2431687
0.205641
0.1952739
0.1962402
0.1426327
0.1208088
0.166191
0.1593376
0.1089214
0.0745495
0.05960803
0.1066034
0.1798653
0.1905401
0.07487731
-0.1270025
-0.2779047
-0.2861244
-0.1460287
0.07071879
0.2928475
0.4217398
0.4132483
0.3572456
0.2767834
0.1914675
0.09612419
-0.0646266
-0.2294324
-0.4752739
-0.8462303
-1.067658
-0.9726187
-0.6208723
-0.161031
0.2003084
0.3845385
0.5589498
0.7538695
0.6619337
0.3944576
0.4244485
0.6061556
0.533354
0.2720114
0.04704954
-0.03231931
0.09151871
0.2804256
0.3585075
0.4823946
0.68718
0.4967889
-0.2535629
-0.9870901
-1.377732
-1.669747
-1.872467
-1.868856
-1.690148
-1.229471
-0.4325023
0.5615677
1.310817
1.388484
1.167596
1.090978
0.8653463
0.3346285
-0.09396684
-0.1638947
-0.04748265
0.1201038
0.4074322
0.7630804
1.042149
1.151754
1.05737
0.892817
0.6911269
0.2718416
-0.3108731
-0.8210981
-1.27647
-1.694045
-1.788152
-1.43603
-0.858202
-0.3387385
-0.06331364
0.06235228
0.2113215
0.3294527
0.3702346
0.3718767
0.2692153
0.112217
0.03543341
0.005339869
0.04020682
0.2168229
0.4884692
0.6349855
0.4668887
0.09761877
-0.3111985
-0.6163708
-0.6326468
-0.4069986
-0.1404082
0.07263776
0.2788745
0.5397316
0.7888921
1.006167
1.206719
1.175772
0.8025723
0.3068078
-0.07215714
-0.2934354
-0.5975218
-1.068215
-1.433594
-1.575599
-1.562511
-1.46486
-1.292875
-0.9539586
-0.4160149
0.1605643
0.5374755
0.7063757
0.8296059
0.9951998
1.216811
1.37828
1.281343
0.8976762
0.4093572
0.07198301
-0.02705028
-0.07165837
-0.1075898
-0.1034865
-0.1855395
-0.3180745
-0.4158383
-0.450469
-0.3834577
-0.3168046
-0.2840096
-0.200793
-0.1204178
-0.1506095
-0.2927299
-0.419678
-0.4355159
-0.2883495
0.03870947
0.2341895
0.05083106
-0.1835096
-0.1246362
0.04049984
0.02701504
-0.07983368
-0.1113415
0.00389502
0.2698931
0.4855684
0.5203258
0.4720915
0.4126489
0.2980467
0.1984138
0.2695324
0.04673852
-0.312662
0.1810363
0.716383
0.4283595
0.1716785
0.1564712
0.01458651
-0.1024958
-0.05324475
0.04706825
0.06095462
-0.0225179
-0.2414554
-0.5362851
-0.6331373
-0.5519344
-0.4619115
-0.308284
-0.2053816
-0.3285181
-0.6038185
-0.805183
-0.7515208
-0.5785349
-0.4170038
-0.1286879
0.3043724
0.7112063
0.9279008
0.8798404
0.6686741
0.4940479
0.4502896
0.520071
0.6378196
0.6377249
0.4394725
0.2366215
0.1453106
0.06923201
-0.02687053
-0.1761966
-0.3265289
-0.3473682
-0.3211131
-0.300189
-0.2291832
-0.07728216
0.09671441
0.09988655
-0.05264091
-0.278006
-0.5539667
-0.6824813
-0.6370889
-0.6393898
-0.7437453
-0.7410857
-0.4986645
-0.1573183
0.2035292
0.5599974
0.7557241
0.7400427
0.603891
0.4629641
0.3583483
0.1719933
-0.05281846
-0.1089763
-0.02874907
0.1078198
0.2447927
0.2674586
0.2473363
0.1650832
-0.08711836
-0.2651209
-0.1608233
0.03957752
0.1672264
0.255535
0.2422069
0.03294615
-0.2638113
-0.4601116
-0.5318578
-0.5186213
-0.3605332
-0.1586167
-0.05556348
0.006213405
0.1278853
0.3055535
0.3400867
0.1604497
0.007861027
0.02000284
0.1914594
0.3784284
0.2526188
-0.0451264
-0.1508279
-0.0721978
0.09179906
0.09024036
-0.0664838
-0.05407698
0.07046587
0.1843698
0.2844838
0.2059036
-0.2584987
-0.7468115
-0.6652274
-0.3419796
-0.3021697
-0.4274999
-0.3653435
0.03301663
0.3089763
0.2506067
0.3034828
0.483627
0.5790282
0.6111234
0.4973599
0.2411435
0.1147953
0.1698617
0.1184251
-0.1100604
-0.3514186
-0.48038
-0.556406
-0.6233426
-0.5287567
-0.287999
0.03366583
0.3827009
0.5619006
0.4702515
0.2280667
0.07788493
0.1246439
0.1795031
0.07309221
-0.04639725
-0.09595599
-0.1317106
-0.130057
-0.1791118
-0.3450823
-0.5104265
-0.551734
-0.5335872
-0.5385776
-0.4858136
-0.2484304
0.1226809
0.3532177
0.4695904
0.5117944
0.3217574
0.05863709
-0.1909077
-0.2810883
-0.01551162
0.3360817
0.529932
0.4990104
0.3836983
0.515502
0.6891798
0.5024524
0.2014031
0.0639764
0.07326861
0.235653
0.271955
0.0803594
-0.0152776
-0.004429019
-0.1022571
-0.343946
-0.5351585
-0.6197792
-0.7476363
-0.8050681
-0.6150523
-0.3127336
-0.1442296
-0.09490061
-0.1033684
-0.1492144
-0.1376763
-0.158175
-0.2264466
-0.2481638
-0.2241036
-0.07811418
0.165933
0.3774635
0.5257472
0.5298403
0.4235455
0.3893588
0.408497
0.367658
0.2397789
0.1297789
0.1352481
0.2247784
0.3036647
0.2983777
0.2363542
0.100947
-0.06925508
-0.1787633
-0.3281001
-0.5037487
-0.4328361
-0.2444042
-0.3069049
-0.4526365
-0.4445691
-0.2586397
-0.02201305
0.03709251
0.06835978
0.1068386
-0.0002075871
-0.08431151
-0.07417629
-0.02885168
0.03738249
0.04582226
0.03608939
0.06910107
0.1022919
0.1568623
0.187904
0.2037783
0.3660216
0.5481442
0.4858352
0.302097
0.166419
0.0003388624
-0.1087705
-0.0979811
-0.09738363
-0.07448518
-0.09812349
-0.2848647
-0.4136381
-0.4290121
-0.5475523
-0.6413137
-0.455367
-0.138089
0.06310074
0.228411
0.4680445
0.6327854
0.5287018
0.2116652
0.03717697
0.1142359
0.2522181
0.3814994
0.3931247
0.2527921
0.03004121
-0.2548501
-0.4909528
-0.6471981
-0.726772
-0.7125924
-0.6683455
-0.4664718
-0.06982786
0.2855814
0.4888153
0.531815
0.4459159
0.1925535
-0.1648697
-0.3461239
-0.2941732
-0.04446384
0.2813372
0.4298857
0.3311426
0.01083925
-0.2300966
-0.07363084
0.2455435
0.355531
0.2479275
0.2843372
0.5149338
0.4886873
0.1775652
-0.03088785
-0.05896993
0.009803809
0.2075453
0.3522532
0.24627
-0.02611714
-0.3636143
-0.5787477
-0.6044347
-0.6744939
-0.7637751
-0.7405477
-0.7484385
-0.821418
-0.8319899
-0.6280226
-0.1766006
0.3443545
0.7679362
0.9200356
0.8256705
0.665175
0.4864164
0.3876616
0.3289239
0.2112396
0.09600685
-0.01401138
-0.07682022
-0.09128288
-0.1033351
-0.07122686
-0.0953418
-0.2413564
-0.3459519
-0.3435881
-0.2960189
-0.1594055
0.1302094
0.4666876
0.6751727
0.7458924
0.6962896
0.5643528
0.4649572
0.29184
0.05761535
-0.1192002
-0.3288981
-0.4594079
-0.4638362
-0.4676386
-0.5713996
-0.7817993
-0.79307
-0.6244625
-0.4716184
-0.2637203
-0.1521127
-0.2093216
-0.2722905
-0.192557
0.0907944
0.4091924
0.6361542
0.7593718
0.7221881
0.4900048
0.2018658
0.0636112
0.09227975
0.2667253
0.4867139
0.5008603
0.322212
0.1157534
-0.1120127
-0.2014723
-0.1208332
-0.1386674
-0.1949993
-0.2301716
-0.313206
-0.247673
-0.03588372
0.1383737
0.1627217
0.01315593
-0.1165961
-0.1511675
-0.2158906
-0.3853048
-0.5600373
-0.5737029
-0.4112895
-0.2041183
-0.1058044
-0.0423563
0.1000711
0.2538192
0.3294714
0.2685954
0.1749485
0.2028923
0.3294113
0.3887409
0.2792087
0.1297498
0.1308901
0.2308158
0.1872092
0.04362693
0.02891756
0.1108919
0.1554277
0.09507481
-0.04389518
-0.1205654
-0.1277085
-0.1978214
-0.3861672
-0.5677046
-0.5551254
-0.4322448
-0.3188747
-0.2390114
-0.2144544
-0.1717002
-0.1073719
0.05768385
0.3592332
0.5978162
0.6417054
0.5242984
0.3947468
0.332582
0.3074821
0.2415345
0.09763478
0.03986236
0.09145381
0.1054578
0.1142671
0.07023738
-0.1252121
-0.4051382
-0.6104915
-0.5763738
-0.4420679
-0.3890655
-0.29623
-0.11568
0.007187468
0.0541914
0.1401916
0.2010064
0.1191697
-0.087783
-0.3697085
-0.5697849
-0.5161743
-0.2445697
0.1106504
0.3772303
0.4255835
0.4229277
0.5192884
0.5513208
0.4995266
0.5654507
0.6860204
0.6040511
0.3056526
-0.02460689
-0.1969221
-0.177663
-0.1362481
-0.1910833
-0.3906491
-0.5238495
-0.3907762
-0.2971581
-0.2800168
-0.206864
-0.2005613
-0.1375244
-0.0164267
-0.0005735196
-0.0332369
-0.09731442
-0.2584876
-0.2894047
0.09904053
0.4679028
0.284129
-0.1613135
-0.4429759
-0.456537
-0.2514962
0.009618348
0.2260491
0.3123809
0.2762254
0.21653
0.1255548
0.08845371
0.06163321
-0.2415489
-0.657307
-0.834839
-0.8539491
-0.7241145
-0.4234551
-0.1344733
0.1716953
0.5799437
0.9121717
0.9562536
0.7906607
0.6603172
0.6152788
0.5677286
0.5618025
0.5832938
0.58241
0.7479256
0.9777677
0.9403149
0.7254519
0.475386
0.2624498
0.08870537
-0.3079174
-0.8018368
-1.049028
-1.090672
-1.061633
-1.09211
-1.095318
-0.9524603
-0.8092453
-0.6794218
-0.6126996
-0.6161628
-0.5257061
-0.425344
-0.3936855
-0.3260066
-0.1613065
0.09722663
0.2790576
0.2729145
0.392947
0.8118979
1.22865
1.311827
0.940506
0.3400671
-0.09049368
-0.1930272
-0.1175221
-0.004223727
0.0489852
-0.03230019
-0.1224498
-0.09209692
0.03163049
0.1119594
0.09055407
-0.05027182
-0.3134283
-0.5581464
-0.67266
-0.6022155
-0.4659978
-0.3167203
-0.06607778
0.1294285
0.3236748
0.5913565
0.7272424
0.7198669
0.6228161
0.5540175
0.4989103
0.3301454
0.2553881
0.3962525
0.6589094
0.7991019
0.6169099
0.3502319
0.1758632
0.07487139
0.06991208
0.1074797
0.1521331
0.07061388
-0.2634883
-0.8074779
-1.472022
-1.881808
-1.895594
-1.92187
-1.996478
-1.831834
-1.43042
-0.8652922
-0.08658525
0.9503635
2.146871
3.283746
4.036945
3.729395
1.866264
-1.10875
-4.264718
-6.690938
-7.637561
-6.729898
-3.942008
0.08715079
3.966075
6.678962
7.851977
7.419584
5.941173
4.021063
2.066668
0.5805014
-0.3209587
-0.930238
-1.375046
-1.427732
-0.9982578
-0.4171496
0.03359251
0.3105956
0.2989247
-0.1372224
-1.052025
-2.366458
-3.651062
-4.428864
-4.500909
-3.899009
-2.832421
-1.666472
-0.8009821
-0.2709737
0.2436633
1.02395
2.171096
3.414803
4.267091
4.557709
4.385886
3.83796
2.966798
1.877034
0.714816
-0.4441319
-1.529827
-2.448564
-3.170573
-3.659122
-3.798156
-3.576704
-3.084831
-2.439577
-1.72699
-0.9414628
-0.1866386
0.5164953
1.210602
1.785617
2.09218
2.07691
1.935777
1.783767
1.626917
1.518284
1.36225
1.169581
0.9995389
0.6285229
-0.07647718
-0.9560642
-1.696334
-1.939236
-1.782541
-1.538425
-1.206812
-0.8029442
-0.3214393
0.279185
0.8507417
1.243135
1.420235
1.37323
1.17226
0.9248951
0.5783437
0.2656507
0.2135492
0.3813403
0.6470097
0.595402
0.1009903
-0.2803734
-0.5009935
-0.8777937
-1.195629
-1.21667
-0.9981786
-0.6183956
-0.2395139
-0.04216664
-0.001150976
-0.05191813
-0.1746811
-0.2448688
-0.2376924
-0.2396734
-0.2473249
-0.2437865
-0.1893763
-0.05438257
0.1161184
0.2209235
0.2059633
0.09094733
-0.1390445
-0.3459721
-0.3448569
-0.2055334
-0.08308847
-0.03909828
-0.009961113
0.07464062
0.1975373
0.3081871
0.3668333
0.4697429
0.6579281
0.7920229
0.8281814
0.6460828
0.1929474
-0.2284853
-0.453187
-0.5507588
-0.5770651
-0.4906635
-0.2570337
-0.01837322
0.1075118
0.05167861
-0.1849979
-0.4127542
-0.4630376
-0.2669846
0.08355882
0.366882
0.5110108
0.5020122
0.3211064
0.02257326
-0.2894256
-0.4398845
-0.3910148
-0.1503426
0.2151629
0.4095347
0.4065394
0.4000739
0.3674332
0.219045
-0.03589148
-0.1993915
-0.1216913
0.0068481
0.1117816
0.3155842
0.5378929
0.600875
0.3218749
-0.2575915
-0.7496137
-0.9077529
-0.7839985
-0.501788
-0.1454789
0.2274757
0.4326777
0.288741
-0.08638355
-0.485499
-0.7403155
-0.6747788
-0.3664473
-0.003664542
0.3245065
0.5934162
0.844119
0.9762064
0.8220921
0.3959562
-0.08623497
-0.4130652
-0.5742455
-0.5650428
-0.3508668
0.005054339
0.3434297
0.4625504
0.4226735
0.3481414
0.126172
-0.192958
-0.4002519
-0.3776543
-0.1886883
-0.0235781
0.1605144
0.3891714
0.4035623
0.1499817
-0.1800347
-0.4671233
-0.6028346
-0.6069356
-0.6504752
-0.7270431
-0.7115368
-0.596836
-0.4517597
-0.2927274
-0.06883501
0.2414488
0.5284374
0.6228756
0.5841621
0.6429036
0.8245122
1.000842
1.091999
1.066805
0.9370205
0.763243
0.6206993
0.4351944
0.07509938
-0.3491663
-0.6756124
-0.9502637
-1.200847
-1.322812
-1.29312
-1.181875
-1.045548
-0.889177
-0.6529573
-0.3078716
0.04069533
0.253592
0.3215504
0.2767541
0.2161624
0.2868772
0.4543833
0.5922108
0.615822
0.4874578
0.287324
0.1647615
0.1598243
0.2743608
0.4610294
0.5034001
0.3987445
0.3159548
0.2823712
0.3036045
0.2827784
0.2194986
0.2141706
0.1256184
-0.03358316
-0.08152022
-0.07985933
-0.1385807
-0.2545331
-0.4026326
-0.5537111
-0.6589447
-0.7059464
-0.734921
-0.7527245
-0.7359487
-0.6695483
-0.5313308
-0.275881
0.1051887
0.4538338
0.5687643
0.5056123
0.4791789
0.5586701
0.6603283
0.702707
0.6640183
0.5684212
0.4789862
0.3189839
-0.07787363
-0.5806161
-0.8722281
-0.8824735
-0.7371047
-0.5140874
-0.2939331
-0.1184855
-0.03281998
0.03368914
0.3520435
0.7485892
0.9247546
0.9807882
0.8372037
0.4654085
0.151037
-0.0536404
-0.2850483
-0.5389314
-0.7764272
-0.9982966
-1.135298
-1.131645
-0.9789636
-0.7112629
-0.3850323
-0.06751208
0.1729636
0.3986446
0.5422788
0.4951772
0.3808928
0.2543901
0.1169868
0.03265159
0.07897851
0.2829844
0.5370842
0.7443167
0.8546966
0.7922243
0.5676928
0.3278883
0.1858589
0.1306862
0.08813334
0.01766269
0.03813854
0.2877257
0.7586719
1.137828
0.919631
0.4154195
0.2161607
-0.1910533
-1.184331
-2.23276
-2.889088
-2.944109
-2.48762
-1.941198
-1.583219
-1.442984
-1.323073
-0.843167
0.1241045
1.245559
2.106158
2.593534
2.922662
3.303107
3.629229
3.725295
3.636631
3.348238
2.718605
1.729933
0.4209175
-1.143194
-2.812458
-4.404588
-5.730263
-6.602368
-6.842402
-6.262974
-4.873871
-3.040053
-1.122719
0.7473818
2.458397
3.804962
4.626408
4.904667
4.803337
4.546348
4.149852
3.544124
2.759363
1.840803
0.7796251
-0.2291108
-0.8607228
-1.291291
-1.77529
-2.202449
-2.528223
-2.691057
-2.628406
-2.403347
-1.987015
-1.387141
-0.7310711
-0.1224586
0.3288352
0.5976793
0.7146869
0.7158026
0.7198671
0.7305612
0.7321178
0.6442216
0.3277206
0.003093035
-0.1411996
-0.1953465
-0.2384915
-0.3389574
-0.4401012
-0.4122085
-0.2667498
-0.07682387
0.05098899
0.06764857
0.1282838
0.3106874
0.5280401
0.6801432
0.6645892
0.5575591
0.503644
0.488631
0.4033423
0.1718629
-0.07184678
-0.1803286
-0.204449
-0.1240906
0.07184302
0.1611614
0.08224431
-0.03596682
-0.2098425
-0.3810484
-0.4719256
-0.5860999
-0.6557555
-0.5187118
-0.3039101
-0.1995017
-0.2201516
-0.3010287
-0.3194861
-0.2092251
-0.05854319
0.03764747
0.122617
0.2292425
0.2659454
0.2192794
0.1409938
0.0808533
0.09377953
0.114019
0.1291863
0.2151313
0.3115377
0.3983619
0.4682734
0.3788684
0.1808507
0.04671523
-0.01336384
-0.05430204
-0.1062868
-0.126805
-0.1226614
-0.09601849
0.02742281
0.1400447
0.1763205
0.1679788
-0.02076039
-0.3122072
-0.4373801
-0.3812765
-0.2589308
-0.1160036
0.06192805
0.1965063
0.1952266
0.1575128
0.1787409
0.2576072
0.3504501
0.3757218
0.3219595
0.235378
0.1533777
0.1244838
0.08692908
-0.0557834
-0.2408367
-0.4397644
-0.6226034
-0.7381899
-0.8031114
-0.7690895
-0.6762029
-0.5691257
-0.3501372
-0.03746188
0.2098745
0.3279123
0.3566219
0.2685958
0.1197714
0.1005019
0.1981209
0.3116727
0.4421767
0.5726454
0.7113156
0.7675403
0.6387222
0.4196907
0.1843019
-0.08137341
-0.3061154
-0.3497187
-0.2180132
-0.07700593
-0.03910767
-0.08909302
-0.2275741
-0.345508
-0.4666861
-0.7577679
-0.9581332
-1.04252
-1.045037
-0.7104399
-0.3049784
0.04284804
0.4158564
0.5581788
0.483058
0.43448
0.5268999
0.6939521
0.7412702
0.6680953
0.6050811
0.519296
0.3693296
0.2845457
0.3221132
0.3644755
0.3041964
0.1316931
0.004629868
0.02954547
0.1197304
0.1924653
0.133132
-0.08636357
-0.3866592
-0.7198956
-0.9289976
-0.9375857
-0.8679571
-0.730185
-0.5161524
-0.4072858
-0.3871214
-0.2710589
-0.1314604
-0.009486582
0.155276
0.284014
0.3244384
0.2635279
0.1297148
0.1067013
0.2261519
0.2558677
0.1205228
0.02473733
0.1470843
0.3519501
0.4280316
0.4061711
0.3327774
0.208241
0.1451712
0.2014136
0.1993453
0.04325815
-0.1252198
-0.2378226
-0.3020096
-0.3394428
-0.3067738
-0.1585225
-0.02419988
0.08265276
0.1481939
0.1201633
0.1925404
0.3952039
0.5613158
0.6085976
0.5005875
0.3396507
0.1783359
-0.03256614
-0.2471058
-0.4447997
-0.5225123
-0.4493307
-0.4878099
-0.6426269
-0.744968
-0.8285266
-0.8537046
-0.8154124
-0.7869448
-0.6956108
-0.4686119
-0.1275797
0.2468765
0.6110549
0.9178024
1.083419
1.128609
0.9862796
0.6876459
0.494035
0.3884861
0.2460097
0.09950901
-0.003033084
-0.07851109
-0.2472706
-0.4371888
-0.4810843
-0.4727132
-0.4529666
-0.3352632
-0.1625542
0.02684212
0.1939771
0.2841757
0.3236891
0.2782796
0.1439805
0.04797554
0.04603165
0.06773619
0.06310435
0.002156992
-0.09434111
-0.1211221
-0.08742318
-0.04488418
-0.01204337
-0.05328736
-0.1593747
-0.270519
-0.2818158
-0.1188144
0.00945563
-0.0291089
-0.06532018
-0.01324108
0.05279164
0.001015873
-0.1366621
-0.1806996
-0.1201754
-0.0384732
0.0369467
0.09232505
0.08256064
0.03759651
0.08578974
0.2618837
0.4817908
0.5637946
0.3473665
0.05372292
0.06304102
0.3707869
0.7215633
0.8789063
0.7632873
0.5030692
0.1866165
-0.1585239
-0.4332539
-0.6183828
-0.8065444
-1.001547
-1.126371
-1.093142
-0.9405878
-0.8844926
-0.9219725
-0.8231497
-0.5318269
-0.1864038
0.1710742
0.5752364
0.9044631
1.067915
1.116321
1.065143
0.9015644
0.7529489
0.6750197
0.438616
0.03873417
-0.2978148
-0.557865
-0.732476
-0.7947564
-0.7848356
-0.6806902
-0.5362338
-0.4013983
-0.2021774
0.09800539
0.3926231
0.5268286
0.5205825
0.4532374
0.3503779
0.2784164
0.2378389
0.2223976
0.2757102
0.2986679
0.2206166
0.1250806
0.04830633
0.06944042
0.158327
0.1105519
-0.0007847633
-0.03852362
-0.07788735
-0.1339136
-0.1891788
-0.2951084
-0.4441327
-0.5338061
-0.5574241
-0.6428538
-0.7066921
-0.5798867
-0.3502194
-0.08140987
0.1620352
0.2333681
0.1651562
0.02952305
-0.09900225
-0.1301887
-0.07900244
0.08282058
0.3501911
0.5625017
0.7172367
0.8555463
0.8632636
0.8237168
0.8292093
0.7711448
0.6003436
0.3249691
0.03033019
-0.2197689
-0.4315051
-0.5447044
-0.583824
-0.5990866
-0.5756599
-0.588664
-0.6865049
-0.8087814
-0.9494956
-1.022816
-0.8707796
-0.5757827
-0.2221987
0.174014
0.4249204
0.4386837
0.3667994
0.4036933
0.5474413
0.6193455
0.5891163
0.4845729
0.2845523
0.04748271
-0.1555743
-0.2318972
-0.1712893
-0.07780604
-0.05572825
-0.08314352
-0.06528159
-0.04746959
0.02321599
0.1677083
0.2952521
0.4601965
0.5440437
0.4041488
0.2878748
0.4566023
0.7004349
0.6514435
0.3331382
-0.02141516
-0.2346918
-0.2710542
-0.2993947
-0.3474727
-0.3390377
-0.3523859
-0.439368
-0.5859244
-0.6945835
-0.7030596
-0.6928122
-0.6622738
-0.560159
-0.418657
-0.2993289
-0.2076614
-0.075326
0.09195314
0.1947396
0.2221296
0.2829691
0.4301381
0.5635107
0.6054263
0.5590292
0.4389488
0.3383267
0.3827108
0.5586181
0.6717939
0.6153305
0.4575888
0.2353322
-0.01105142
-0.2020978
-0.3138244
-0.3788792
-0.4338656
-0.5033284
-0.5838734
-0.6388238
-0.6042366
-0.4429055
-0.244384
-0.0987726
-0.001422689
0.09142989
0.2094532
0.3040691
0.3413775
0.3496046
0.3601432
0.3169652
0.1605015
-0.05774746
-0.287421
-0.3997266
-0.3081381
-0.1461091
-0.05551842
-0.0788497
-0.1640374
-0.1897622
-0.2044012
-0.3126494
-0.351669
-0.4376824
-0.5773056
-0.3200621
0.1300604
0.4620359
0.733578
0.8590904
0.850822
0.8444307
0.8818696
0.837168
0.6887754
0.4878465
0.2996353
0.289685
0.2963764
0.1571838
0.03468537
-0.1325977
-0.4640279
-0.7790619
-0.969122
-1.175993
-1.421572
-1.487364
-1.292238
-0.861443
-0.2377764
0.3411554
0.736815
0.9512962
0.9072963
0.6435236
0.3284834
0.09238838
-0.007194893
-0.008031309
-0.02850496
-0.1092068
-0.1472942
-0.09051978
-0.007864272
0.006893706
-0.0470028
-0.1012197
-0.1452107
-0.212401
-0.3205298
-0.3613242
-0.2263501
-0.03945883
0.0708981
0.1803507
0.3321646
0.4208999
0.448864
0.473573
0.3898687
0.1522028
-0.08356242
-0.1693146
-0.1328526
-0.0323294
0.0928937
0.1127126
0.0514334
0.04812174
0.09372097
0.1232418
0.0679135
-0.09592942
-0.2804457
-0.3462189
-0.2907474
-0.2822601
-0.307345
-0.1468742
0.1484237
0.3378761
0.4644917
0.6312616
0.7682731
0.8400439
0.867676
0.8749486
0.7979354
0.5515987
0.2383859
-0.01646879
-0.2584701
-0.5269564
-0.7530172
-0.9480711
-1.170197
-1.326012
-1.349444
-1.262224
-0.9697402
-0.4483011
0.1807368
0.8465119
1.353653
1.37414
0.8108516
-0.1664335
-1.349654
-2.603989
-3.629735
-3.92332
-3.376976
-2.117764
-0.06421333
2.359637
4.186631
4.917917
4.649877
3.691839
2.487781
1.393229
0.6038817
0.1697407
-0.2023787
-0.7891477
-1.547215
-2.295307
-2.73067
-2.576472
-1.814651
-0.5894316
0.97399
2.543889
3.569415
3.817693
3.51083
2.878407
1.938329
0.851877
-0.312407
-1.817611
-3.519042
-4.91579
-5.646564
-5.466949
-4.467537
-3.032772
-1.226146
0.9495645
2.774716
3.633321
3.727619
3.405668
2.823242
2.043396
1.208194
0.4170872
-0.405222
-1.206558
-1.843339
-2.260848
-2.468343
-2.512868
-2.393159
-2.078457
-1.550202
-0.8477249
-0.04438148
0.8201197
1.596511
2.097439
2.33828
2.414514
2.331642
2.086115
1.680562
1.170102
0.666181
0.3321567
0.2330957
0.007032328
-0.630102
-1.296204
-1.5121
-1.369632
-1.15479
-0.9595938
-0.8382512
-0.7282643
-0.5258989
-0.2824893
-0.0607882
0.1294281
0.2205964
0.231997
0.3214813
0.504988
0.7457594
0.9826998
1.058292
0.8762827
0.3696601
-0.2633358
-0.5570053
-0.4497552
-0.2451672
-0.0420595
0.1112703
0.1599921
0.1974145
0.214144
0.2212589
0.2393901
0.1161175
-0.1346531
-0.2849088
-0.1992663
0.00907422
0.1679627
0.3117144
0.4749711
0.5444795
0.4268149
0.1215516
-0.3057574
-0.7825703
-1.240325
-1.554248
-1.544553
-1.227211
-0.804011
-0.3818672
-0.09348776
-0.005573231
-0.005717317
-0.06223704
-0.1100372
0.05200281
0.4694436
0.9318751
1.251933
1.327894
1.036901
0.4761079
-0.04549356
-0.3721521
-0.4684047
-0.2794676
0.02687638
0.1998081
0.3256794
0.4523062
0.3321242
-0.02463839
-0.3003376
-0.4294577
-0.4476426
-0.1682571
0.2812717
0.5207573
0.465434
0.1170201
-0.4226656
-0.834075
-0.9606099
-0.9236776
-0.7486587
-0.3801877
0.06584919
0.406534
0.4793569
0.3486653
0.1642018
-0.03366794
-0.03416479
0.2165221
0.5158516
0.7838095
0.8898407
0.6662626
0.1898907
-0.1903601
-0.2654497
-0.2354339
-0.2818111
-0.4404377
-0.6889907
-0.786056
-0.5081307
0.005157346
0.4566818
0.6268841
0.4424082
0.1645312
0.02833994
0.002456015
0.1489464
0.4694631
0.8000141
0.9843225
0.8846756
0.490118
-0.0002835948
-0.3566927
-0.6598575
-0.8944036
-0.7475546
-0.4120296
-0.2508481
-0.1416457
-0.03675925
-0.03262376
-0.09071094
-0.1779671
-0.2645366
-0.3813162
-0.4708345
-0.3763604
-0.1623717
0.03233527
0.2088309
0.388923
0.4990942
0.5323214
0.3988864
-0.009183742
-0.4253537
-0.631346
-0.6427186
-0.5080516
-0.2359948
0.1098241
0.2620479
0.2141129
0.2346667
0.3165499
0.3025676
0.3007876
0.3815857
0.4067123
0.4369929
0.4371848
0.2641861
0.08112175
-0.03702578
-0.1731221
-0.2721654
-0.3199518
-0.3743487
-0.4030133
-0.4059218
-0.4148957
-0.42452
-0.4561193
-0.4598078
-0.353341
-0.125955
0.1049317
0.1836705
0.1703709
0.2007129
0.2983062
0.4231883
0.5294214
0.5865295
0.574578
0.5687826
0.5704618
0.4833046
0.3889958
0.3921282
0.538082
0.6696236
0.454348
-0.06435119
-0.5535743
-0.7996535
-0.8684546
-0.9115809
-0.9367741
-0.9204023
-0.84133
-0.7466803
-0.7332388
-0.7007816
-0.4486448
-0.1247665
0.1137516
0.3713795
0.4599688
0.2782668
0.07092779
-0.09605618
-0.1699957
-0.1100222
-0.01141167
0.2035329
0.4976303
0.6325151
0.6239359
0.5574986
0.5679484
0.7617514
0.9200259
0.894915
0.6922423
0.5240456
0.4531229
0.05237664
-0.625779
-1.184398
-1.488107
-1.455639
-1.103162
-0.6161157
-0.2830957
-0.0937168
0.1525144
0.4194308
0.6192003
0.7539384
0.8204721
0.7727613
0.6634931
0.5906214
0.5320835
0.4647067
0.4301762
0.3388424
0.1383074
0.08842856
0.1956856
0.09451663
-0.250378
-0.5918957
-0.8338781
-1.031323
-1.198777
-1.238728
-1.111321
-0.8896937
-0.6079034
-0.3484748
-0.2193296
-0.1545389
-0.0733708
0.0452713
0.1805127
0.2810652
0.3254352
0.2932974
0.2469331
0.2794771
0.4024245
0.515496
0.6111107
0.7431806
0.7406349
0.6203411
0.5423541
0.4655048
0.3975607
0.3146955
0.2009613
-0.01851982
-0.5002263
-0.9994664
-1.272952
-1.262977
-0.9704608
-0.8371603
-0.9163723
-0.6101884
0.02207438
0.3554283
0.2114419
-0.1224483
-0.2328153
0.1149074
0.753426
1.415531
2.059799
2.684402
3.017256
2.674786
1.683655
0.5361678
-0.4828988
-1.442364
-2.208604
-2.670931
-2.941328
-2.986869
-2.814481
-2.509412
-2.019567
-1.289815
-0.3640732
0.55525
1.256016
1.716735
1.965602
2.049743
2.070288
1.977249
1.635508
1.070345
0.529208
0.3452962
0.4545501
0.474149
0.2752786
-0.123306
-0.6335334
-1.071276
-1.377925
-1.481403
-1.361706
-1.131784
-0.7724833
-0.3477938
-0.04218457
0.2457156
0.610696
0.8441584
0.8372557
0.6910113
0.5610576
0.5363586
0.5530285
0.5363175
0.44299
0.2060766
-0.1539516
-0.4444457
-0.5813149
-0.66867
-0.7127775
-0.7074258
-0.7037695
-0.7219139
-0.7616658
-0.7210521
-0.5054223
-0.2025683
0.09501307
0.4061118
0.6937463
0.837333
0.7116946
0.3349977
0.003587084
-0.05932655
0.04375301
0.2002412
0.3455465
0.3972215
0.4027882
0.352037
0.100663
-0.2723317
-0.4871736
-0.4178871
-0.212981
-0.1460122
-0.1883787
-0.1456653
-0.134928
-0.2316388
-0.3014012
-0.266334
-0.07485024
0.205881
0.3820012
0.5238746
0.7602811
0.8079805
0.5142223
0.1551868
-0.07532845
-0.1857071
-0.2079484
-0.1525037
-0.08785873
-0.1464769
-0.3504232
-0.5360823
-0.5062064
-0.3065944
-0.1350388
0.001403587
0.1044236
0.07338868
0.009219453
0.06703921
0.1196167
0.05228695
-0.002600152
-0.01756374
-0.03943379
-0.03549984
-0.07903131
-0.1810101
-0.1488024
0.04701299
0.1956349
0.2784846
0.3165436
0.2932029
0.3452686
0.2834213
0.02371726
-0.05256577
-0.006350255
-0.1374179
-0.2807733
-0.2956538
-0.3165361
-0.3230298
-0.2301378
-0.02253893
0.2506088
0.459913
0.5601316
0.5045105
0.310751
0.1323863
0.03523088
-0.02920197
-0.1142398
-0.1789804
-0.2014186
-0.2532423
-0.3412565
-0.4362072
-0.492554
-0.4714846
-0.4072296
-0.2489259
0.02312147
0.2251583
0.2806435
0.2617343
0.1557187
0.0184927
0.01073844
0.1984294
0.4221885
0.4109192
0.2572799
0.1924285
0.128397
0.05142261
0.04170498
0.07076015
0.1844408
0.3802017
0.4848151
0.3926421
0.2728783
0.2701446
0.2149177
-0.02712303
-0.3535556
-0.728112
-1.087995
-1.157299
-0.9060544
-0.5999436
-0.3855345
-0.2939825
-0.334912
-0.3793857
-0.2878755
-0.137913
-0.02693077
0.09438679
0.292155
0.4003235
0.3259317
0.2773663
0.3186785
0.3944424
0.4137745
0.3383275
0.2813154
0.2820973
0.3351488
0.3860583
0.3382733
0.2053145
0.1201719
0.1289435
0.1014918
0.035857
0.0004807573
-0.07334866
-0.1562148
-0.1637522
-0.1295201
-0.1095673
-0.1144225
-0.06475725
0.05656282
0.1009988
0.0354258
-0.006774879
0.02430991
0.1018834
0.1996176
0.2569696
0.1592829
-0.1574523
-0.4755923
-0.5002852
-0.3140761
-0.2144501
-0.2801615
-0.431942
-0.6256456
-0.7362532
-0.7204167
-0.6887296
-0.550582
-0.260097
0.005618042
0.2178124
0.4592371
0.7404312
1.008085
1.148086
1.099733
0.9327382
0.7160625
0.5008798
0.326363
0.1814691
0.0879107
0.07316697
0.07334923
-0.01227886
-0.1751526
-0.3457549
-0.4721972
-0.4775646
-0.4015568
-0.3312717
-0.2430834
-0.2378753
-0.3786819
-0.4943395
-0.5259594
-0.5032309
-0.4437229
-0.4459018
-0.4841767
-0.4035669
-0.1899258
0.0362802
0.1815436
0.2075046
0.1493161
0.1241316
0.1417871
0.1904547
0.3494096
0.5612592
0.7459002
0.9039444
1.01598
0.9965637
0.8233265
0.6343908
0.4505619
0.2122993
-0.05064353
-0.3177091
-0.5783066
-0.7483315
-0.7973261
-0.841498
-0.9250845
-0.9687524
-0.8724936
-0.628749
-0.3067531
-0.02662781
0.07677253
0.09419379
0.1439435
0.1955095
0.2073715
0.2254087
0.3241999
0.3736197
0.272396
0.08843705
-0.02748648
0.05951324
0.1593285
0.06913375
-0.07119613
-0.1038548
-0.07233173
-0.03232614
0.06492062
0.2089892
0.3262565
0.3862214
0.3681699
0.3163607
0.2843036
0.2560958
0.221473
0.1046775
-0.003598203
0.125403
0.259815
0.05868646
-0.2168561
-0.1785388
-0.1178093
-0.3709916
-0.5881069
-0.4631974
-0.1267387
-0.07559922
-0.4670948
-0.555252
-0.2149998
-0.1462274
-0.3497842
-0.4694255
-0.5325842
-0.5158301
-0.3263146
-0.1102182
0.1069584
0.456241
0.752556
0.7899723
0.6662675
0.4455897
0.2391578
0.2082378
0.2513096
0.2539569
0.273927
0.3268029
0.357112
0.3558449
0.267113
0.06413823
-0.1067253
-0.2513177
-0.4144465
-0.4705446
-0.4724652
-0.4841318
-0.4368794
-0.3721005
-0.3182166
-0.2229414
-0.07745506
0.0815013
0.2289989
0.3517102
0.3960544
0.3456589
0.2775379
0.2084311
0.0543869
-0.1543536
-0.2702325
-0.3124498
-0.3778814
-0.3648219
-0.2191118
-0.1291334
-0.1430335
-0.09493235
0.08388956
0.398121
0.7553777
0.9375542
0.9195427
0.8361392
0.7134028
0.4892101
0.2381747
0.1023194
-0.03040371
-0.2585538
-0.490365
-0.7244691
-0.9847665
-1.197083
-1.317897
-1.343791
-1.19731
-0.8890457
-0.5881304
-0.3591445
-0.1447064
0.08568455
0.3398651
0.5384526
0.6216646
0.6904203
0.7703068
0.7679087
0.6584355
0.5141019
0.4499709
0.4986927
0.52084
0.473058
0.4656398
0.4291711
0.2915986
0.1240376
-0.04080028
-0.1431015
-0.2207927
-0.382777
-0.5395712
-0.6240281
-0.6468216
-0.5808843
-0.5128547
-0.4877521
-0.3416629
-0.01498486
